Time (s),Amplitude
0.34476423,807
0.34476423,0
0.34476423,786
0.36039209,0
0.36039209,784
0.37602258,0
0.39165473,818
0.39165473,64
0.40728140,742
0.42291403,186
0.42291403,768
0.43854070,195
0.45417047,754
0.45417047,203
0.46980357,765
0.46980357,210
0.48543119,747
0.50106049,224
0.50106049,718
0.51669168,221
0.53232288,720
0.53232288,226
0.54794955,693
0.56358004,226
0.56358004,695
0.57921004,240
0.59484029,674
0.60354614,240
0.61354733,704
0.62542510,245
0.63545060,667
0.64614272,256
0.65384007,655
0.66584301,260
0.66704059,656
0.68266559,272
0.68266559,642
0.70247626,275
0.70247626,641
0.72384000,289
0.73584199,621
0.74584246,293
0.75100636,688
0.75100636,298
0.76663136,659
0.78226185,297
0.78226185,688
0.79789138,313
0.81352472,661
0.81352472,319
0.83584237,652
0.84383988,325
0.85020185,671
0.86582804,347
0.86582804,637
0.88145542,384
0.88145542,620
0.89708853,400
0.91271496,598
0.91271496,412
0.92835855,571
0.94421172,432
0.94421172,549
0.95961928,449
0.97547746,506
0.97547746,471
0.99087834,462
0.99087834,496
1.00650835,453
1.02212477,461
1.02212477,401
1.03775477,422
1.05338526,334
1.05338526,463
1.06901383,325
1.08464527,413
1.08464527,288
1.10027313,398
1.11590362,309
1.11590362,425
1.13153315,339
1.13153315,445
1.14716458,291
1.16279125,432
1.16279125,287
1.17842126,431
1.19405031,275
1.19405031,464
1.21376801,304
1.22584176,544
1.23584127,377
1.24584174,630
1.25055528,219
1.25055528,603
1.26618075,155
1.28181052,559
1.28181052,58
1.29743958,539
1.31307125,28
1.31307125,666
1.32869959,2
1.34432840,927
1.34432840,29
1.36081481,944
1.37357926,33
1.38318324,955
1.38318324,27
1.39881110,947
1.39881110,27
1.41443944,982
1.43006873,25
1.44604874,982
1.44915414,19
1.46478534,1047
1.46478534,28
1.48041368,1330
1.48041368,18
1.49604416,1232
1.51167297,21
1.51167297,1216
1.52730513,25
1.54293108,1265
1.54293108,29
1.55856133,1311
1.57419109,32
1.57419109,1315
1.59289765,26
1.59289765,1344
1.60852432,33
1.62415314,1351
1.62415314,26
1.63979483,1423
1.65541506,22
1.65541506,1423
1.67104387,32
1.67104387,1457
1.68667316,26
1.70591521,1398
1.71641922,27
1.72341585,1397
1.73522019,33
1.74522066,1406
1.75125074,31
1.75125074,1411
1.76687932,36
1.78250694,1420
1.78250694,34
1.79813862,1414
1.81376696,32
1.81376696,1437
1.82939553,35
1.84502530,1456
1.84502530,36
1.86065507,1414
1.86065507,37
1.87628317,1437
1.89274430,45
1.90343714,1559
1.91606045,43
1.91606045,1577
1.93168926,42
1.93168926,1567
1.94731688,42
1.96294832,1529
1.96294832,43
1.97857857,1570
1.99420595,48
1.99420595,1597
2.00983453,50
2.00983453,1582
2.02546406,51
2.04578257,1589
2.05183768,48
2.05183768,1595
2.06746626,57
2.08309579,1434
2.08309579,69
2.09872651,1302
2.11435533,67
2.11435533,1264
2.12998438,66
2.12998438,1200
2.14561462,79
2.16126561,1232
2.16126561,80
2.17688775,1198
2.19252586,83
2.19252586,1168
2.21585941,74
2.22614145,1154
2.23583031,75
2.24381733,1161
2.25085402,46
2.25085402,1129
2.26648259,94
2.28330731,1085
2.29344392,80
2.29344392,1056
2.30906940,81
2.32469964,1038
2.32469964,82
2.34395981,1023
2.34446836,95
2.36009860,989
2.37573075,89
2.38348675,1007
2.39060068,83
2.39060068,1015
2.40623164,80
2.42258191,1010
2.43584061,82
2.44584131,1008
2.44889116,86
2.44889116,1053
2.46451735,96
2.48015022,1039
2.49577761,86
2.49577761,1014
2.51140809,95
2.51140809,1042
2.52703500,102
2.54266572,1030
2.54266572,99
2.55829549,1002
2.57392716,99
2.57392716,980
2.58955741,99
2.60583830,983
2.61557198,102
2.62383795,976
2.63201642,99
2.63201642,969
2.64764094,107
2.66327047,947
2.66327047,112
2.67890143,960
2.69606423,109
2.70314598,983
2.70516181,112
2.72509289,969
2.73584056,114
2.74383783,976
2.75584316,114
2.76587677,948
2.76587677,115
2.78150225,961
2.78150225,123
2.79713345,912
2.81276107,144
2.81276107,849
2.82839322,144
2.84402132,844
2.84402132,145
2.85965395,860
2.87528062,163
2.87528062,880
2.89090991,178
2.89090991,848
2.90654397,235
2.92217159,910
2.92217159,253
2.93781376,915
2.95436954,256
2.96586370,912
2.97588229,280
2.98194146,846
2.98194146,305
2.99756646,821
3.01319599,304
3.01319599,784
3.02882576,309
3.04445696,718
3.04445696,320
3.06375146,730
3.07084775,323
3.07084775,722
3.08647633,320
3.10210586,720
3.10210586,323
3.11773753,672
3.13336825,310
3.13336825,675
3.14899659,304
3.16462564,659
3.16462564,306
3.18025422,674
3.19588399,308
3.19588399,656
3.21524835,318
3.21524835,673
3.23584056,319
3.24584126,698
3.25584006,334
3.26384568,683
3.26536250,329
3.28098750,691
3.28098750,341
3.29661870,669
3.31225061,333
3.31225061,653
3.32787824,338
3.34350729,627
3.34350729,336
3.35913920,607
3.37476778,336
3.37476778,634
3.39039898,340
3.39039898,593
3.40602756,370
3.42366219,577
3.43275094,394
3.43275094,549
3.44837809,423
3.44837809,528
3.46400857,482
3.48583937,539
3.49583936,534
3.49794459,464
3.51357079,626
3.51357079,406
3.52922297,690
3.52922297,400
3.54485083,720
3.56083512,429
3.57627606,767
3.57627606,390
3.59362030,752
3.59362030,336
3.60926318,720
3.60926318,297
3.62489247,798
3.64090943,265
3.65635133,806
3.65635133,295
3.67213178,836
3.67213178,363
3.68739820,853
3.70414424,350
3.71585679,898
3.72583890,357
3.73584032,929
3.74411345,328
3.74845243,943
3.76410031,230
3.76410031,971
3.78011632,231
3.79561567,988
3.79561567,219
3.81098914,1040
3.81098914,213
3.82662082,1076
3.84271479,177
3.84271479,1122
3.85787916,159
3.87349057,1108
3.87349057,64
3.88967538,1154
3.90474939,70
3.90474939,1167
3.92037559,43
3.93600583,1199
3.93600583,39
3.95163584,1210
3.95163584,33
3.96726537,1206
3.98289776,29
3.98289776,1200
3.99852490,28
4.01506019,1216
4.01506019,29
4.03397441,1230
4.04597592,21
4.04751277,1265
4.06314135,24
4.06314135,1247
4.07414937,16
4.09033060,1271
4.10595870,19
4.10595870,1294
4.12158871,29
4.12158871,1297
4.13721824,25
4.15285134,1361
4.15285134,26
4.16847920,1375
4.18410921,27
4.18410921,1367
4.20476985,16
4.21566653,1375
4.22566533,27
4.23406386,1406
4.24506497,22
4.24910069,1406
4.26472855,29
4.26472855,1414
4.28035879,25
4.29598665,1447
4.29598665,32
4.31161857,1382
4.31161857,30
4.32724547,1456
4.34400630,34
4.34451222,1495
4.36013961,33
4.37576938,1455
4.37576938,33
4.39140296,1499
4.39140296,28
4.40703011,1392
4.42528868,32
4.43337297,1439
4.44582438,25
4.44889760,1438
4.46452451,43
4.46452451,1449
4.48015475,37
4.49578547,1441
4.49578547,33
4.51141453,1443
4.51141453,37
4.52704358,1424
4.54372597,43
4.55416441,1423
4.56412077,48
4.56412077,1440
4.57974672,49
4.57974672,1442
4.60583782,51
4.61584091,1426
4.62583828,48
4.63086700,1419
4.63086700,51
4.64650440,1463
4.66214323,50
4.66214323,1570
4.67776418,50
4.69362950,1535
4.69362950,47
4.71421742,1433
4.72634864,52
4.73585415,1424
4.74585366,60
4.75385785,1424
4.76427460,64
4.76427460,1411
4.78016186,81
4.79579568,1385
4.79579568,87
4.81118083,1325
4.81118083,69
4.82680178,1489
4.84282947,62
4.84282947,1514
4.85806680,31
4.87368131,1535
4.87368131,98
4.88932610,1468
4.90533042,96
4.90533042,1430
4.92095637,92
4.93626714,1450
4.93626714,80
4.95184040,1423
4.95184040,97
4.96748042,1348
4.98309040,102
4.99379182,1286
4.99886131,99
5.01449347,1232
5.01449347,106
5.03012204,1258
5.04575086,112
5.04575086,1238
5.06333566,113
5.07533050,1260
5.07994318,118
5.09557128,1225
5.09557128,121
5.11119938,1205
5.11119938,132
5.12682962,1219
5.14245939,140
5.14245939,1198
5.15808797,144
5.17371678,1150
5.17371678,149
5.18934774,1095
5.20537496,162
5.21583843,1114
5.22583771,156
5.23383522,995
5.24584341,160
5.24785876,951
5.26348424,162
5.26348424,944
5.27911425,164
5.29474401,934
5.29474401,167
5.31037331,934
5.31037331,177
5.32600355,944
5.34163547,162
5.34163547,897
5.35726357,153
5.37289429,897
5.37289429,161
5.38852596,898
5.40415359,164
5.40415359,907
5.41978312,172
5.43541288,848
5.43541288,194
5.45104194,878
5.45104194,197
5.46667194,843
5.48230410,227
5.48230410,801
5.49793124,247
5.51356077,834
5.51356077,257
5.52919245,916
5.52919245,257
5.54482031,907
5.56045127,266
5.56045127,886
5.57607913,276
5.59308600,835
5.60522747,278
5.61280322,826
5.61280322,290
5.62842989,838
5.64405990,309
5.64405990,831
5.65969062,328
5.67532134,808
5.67532134,334
5.69094682,789
5.69094682,342
5.71536160,757
5.72536373,367
5.73365927,944
5.74628496,374
5.75532889,709
5.76336074,393
5.76336074,704
5.77898598,390
5.79461932,685
5.80473256,400
5.80473256,647
5.82036090,414
5.82036090,624
5.83598924,435
5.85162067,625
5.85162067,454
5.86725044,624
5.88287926,450
5.88287926,619
5.89850998,466
5.91413927,640
5.91413927,487
5.93077397,631
5.93077397,494
5.94694209,591
5.96256948,499
5.96256948,527
5.97821188,511
5.99407744,527
5.99407744,523
6.00947237,523
6.02534580,539
6.02534580,468
6.04073095,511
6.04073095,492
6.05635262,479
6.07199931,541
6.07199931,250
6.08762097,482
6.10325933,272
6.10325933,480
6.11887050,279
6.13539052,467
6.14584541,289
6.15366292,428
6.16231322,302
6.16231322,407
6.17795157,312
6.19356751,413
6.19356751,325
6.21430874,400
6.21430874,341
6.23382092,368
6.24600387,359
6.25599909,334
6.26403046,369
6.26403046,308
6.27965784,407
6.29528666,288
6.29528666,423
6.31091642,250
6.31091642,446
6.32654572,242
6.34217787,464
6.34479165,238
6.36041927,482
6.36041927,195
6.37604976,524
6.39168262,191
6.39168262,538
6.41600895,146
6.41802239,541
6.43365049,126
6.43365049,576
6.44927955,112
6.44927955,607
6.46490908,100
6.48053980,620
6.48053980,60
6.49617219,640
6.51179934,23
6.51179934,677
6.52742887,0
6.54305911,722
6.54305911,0
6.55869007,753
6.57431865,0
6.57431865,767
6.58994770,0
6.58994770,827
6.61599016,0
6.62599087,894
6.63579559,0
6.64379668,912
6.64682341,0
6.66355181,931
6.66355181,0
6.68383384,944
6.69513297,0
6.69513297,985
6.71378994,0
6.71488881,945
6.73583651,0
6.74609351,927
6.75335908,0
6.76248932,917
6.76248932,0
6.77811718,922
6.79374719,0
6.79374719,920
6.80937791,0
6.82500792,930
6.82500792,0
6.84063387,945
6.84063387,0
6.85626698,976
6.87189269,0
6.87189269,1045
6.88752580,0
6.90315628,1089
6.90315628,0
6.91878319,1118
6.93441200,0
6.93441200,1168
6.95004249,0
6.96567225,1195
6.96567225,0
6.98130155,1189
6.98130155,0
6.99694419,1219
7.01257563,0
7.01257563,1232
7.02819419,0
7.04382348,1228
7.04382348,0
7.05945086,1264
7.07508183,0
7.07508183,1292
7.09071159,0
7.09071159,1474
7.10634255,0
7.12197185,1329
7.12197185,0
7.13760042,1239
7.15591431,0
7.15591431,1235
7.17154431,0
7.17154431,1216
7.19581676,0
7.20601058,1189
7.21331334,0
7.22531414,1159
7.23538542,0
7.24538660,1159
7.24641228,0
7.26203966,1153
7.26203966,0
7.27766728,1134
7.29329658,0
7.29329658,1167
7.31583405,0
7.31917191,1155
7.33479762,0
7.33479762,1152
7.35042858,0
7.35042858,1100
7.36605573,0
7.38168597,1078
7.38168597,0
7.39731669,1092
7.41294622,0
7.41294622,1072
7.42857504,0
7.44393253,1081
7.45565581,0
7.45565581,1084
7.47128320,0
7.47128320,1104
7.48691535,0
7.50254488,1089
7.50254488,0
7.51817298,1087
7.53380179,0
7.53380179,1076
7.54943395,0
7.54943395,1069
7.56507468,0
7.58070683,1072
7.58070683,0
7.59634304,1070
7.61628175,0
7.62585783,1034
7.63599086,0
7.64593267,1001
7.65598774,0
7.66395783,1008
7.67589116,0
7.68628788,995
7.69628477,0
7.70396304,985
7.71584845,0
7.72585940,987
7.73583341,0
7.74383235,984
7.75585675,0
7.76585722,956
7.77588844,0
7.78385329,1154
7.79588938,0
7.80629516,1152
7.81383514,0
7.82430577,1145
7.83628964,0
7.84581017,1106
7.85580921,0
7.86381006,966
7.87581086,0
7.88581157,1106
7.89581203,0
7.90381265,1066
7.91581368,0
7.92581487,1131
7.93581533,0
7.94381595,1039
7.95581675,0
7.96581745,1080
7.97581840,0
7.98381877,1083
7.99583459,0
8.00432706,1058
8.01583362,5
8.02583551,994
8.03583407,16
8.04383230,989
8.05583405,23
8.06583500,912
8.07583427,35
8.08383226,973
8.09583426,46
8.10583472,961
8.11602521,53
8.12383246,959
8.13583398,57
8.14583516,927
8.15586448,65
8.16390300,891
8.17584205,67
8.18584299,974
8.19384336,79
8.20584536,933
8.21584487,89
8.22584605,912
8.23384666,102
8.24584770,858
8.25584817,114
8.26584911,787
8.27384996,123
8.28385115,766
8.29585099,139
8.30585194,739
8.31385255,151
8.32585359,751
8.33585429,163
8.34583473,793
8.35383201,175
8.36583424,738
8.37583470,185
8.38583469,751
8.39384055,192
8.40583420,785
8.41583443,211
8.42583466,758
8.43383241,219
8.44583583,731
8.45583487,235
8.46583509,703
8.47383189,241
8.48583436,702
8.49583435,257
8.50583458,675
8.51387787,266
8.52587843,625
8.53583527,281
8.54583478,617
8.55415559,288
8.56383514,590
8.57611799,302
8.58610797,656
8.59383154,310
8.60610604,602
8.61610842,333
8.62606907,571
8.63383198,336
8.64583445,530
8.65583467,346
8.66583419,502
8.67383194,368
8.68583393,566
8.69583416,401
8.70577860,503
8.71385813,432
8.72583437,477
8.73589015,474
8.74583459,455
8.75383019,511
8.76583195,432
8.77583265,539
8.78583384,383
8.79383516,592
8.80583477,362
8.81583571,617
8.82583642,265
8.83383679,651
8.84483767,266
8.85583878,689
8.86583948,230
8.87383962,726
8.88584018,203
8.89584160,758
8.90584207,189
8.91384244,807
8.92583871,163
8.93583393,851
8.94383383,129
8.95583868,876
8.96583343,87
8.97583389,910
8.98383164,95
8.99583364,946
9.00583386,37
9.01583385,982
9.02383137,10
9.03384018,1014
9.04570699,0
9.05583453,1070
9.06384039,0
9.07583451,1098
9.08583260,0
9.09583426,1129
9.10586357,0
9.11410403,1167
9.12478852,0
9.13599229,1197
9.14593840,0
9.15394592,1225
9.16599011,0
9.17598796,1258
9.18583226,0
9.19395041,1281
9.20539808,0
9.21602726,1317
9.22583199,0
9.23585176,1341
9.24593902,0
9.25395131,1355
9.26585555,0
9.27598715,1390
9.28618193,0
9.29400802,1435
9.30621314,0
9.31620526,1424
9.32630014,0
9.33421636,1479
9.34513807,0
9.35515618,1483
9.36513901,0
9.37313986,1476
9.38514042,0
9.39514112,1491
9.40514207,0
9.41314268,1530
9.42514372,0
9.43514395,1526
9.44514537,0
9.45314550,1562
9.46514630,0
9.47514701,1585
9.48514795,0
9.49314857,1590
9.50314999,0
9.51583457,1615
9.52583194,0
9.53383112,1621
9.54583192,0
9.55583382,1647
9.56583166,0
9.57383060,1656
9.58583188,0
9.59315395,1686
9.59315395,0
9.60877991,1669
9.62467694,0
9.62467694,1665
9.64026666,0
9.64026666,1682
9.65568233,0
9.67131853,1663
9.67131853,0
9.68694901,1617
9.70258141,0
9.71583366,1661
9.72540045,0
9.73383093,1673
9.74397588,0
9.74397588,1674
9.75961614,0
9.75961614,1674
9.77524638,0
9.79087400,1649
9.79087400,0
9.80651355,1648
9.82212019,0
9.82212019,1647
9.84539628,0
9.85339737,1663
9.85905790,0
9.87468600,1651
9.88589859,0
9.89557862,1649
9.89796448,0
9.91341329,1650
9.92599797,0
9.93599129,1621
9.94234347,0
9.94234347,1693
9.95797181,0
9.97360206,1552
9.97360206,0
9.98922968,1600
10.00485873,0
10.00485873,1570
10.02048850,0
10.02048850,1565
10.03612137,0
10.05174875,1529
10.05174875,0
10.06738067,1573
10.08300924,0
10.08300924,1535
10.09863758,0
10.09863758,1565
10.11426997,0
10.12989759,1461
10.14552832,0
10.14552832,1480
10.16013408,0
10.17542553,1399
10.17876363,0
10.19402599,1424
10.19751883,0
10.21368289,1424
10.21368289,0
10.22845364,1377
10.24372220,0
10.25583363,1376
10.26583147,0
10.27323914,1363
10.28093886,0
10.29534245,1315
10.30583143,0
10.31371212,1232
10.32611227,0
10.33583307,1251
10.34583354,0
10.35382986,1263
10.36593056,0
10.37619686,1271
10.37686372,0
10.39383078,1215
10.40583086,0
10.41580606,1200
10.42583132,0
10.43383026,1115
10.44570446,0
10.45583153,1169
10.45846581,3
10.45846581,944
10.47409344,11
10.48972416,1017
10.50535154,16
10.50535154,1104
10.52098131,19
10.52098131,1099
10.53661203,21
10.55607533,1072
10.56360865,26
10.57510114,1047
10.57510114,35
10.59570122,1067
10.60570168,46
10.61370850,1089
10.62570906,53
10.62676454,1006
10.64239502,78
10.64940667,923
10.66511297,86
10.66511297,752
10.68066955,89
10.68066955,873
10.69629741,113
10.71611381,885
10.71611381,125
10.73583174,885
10.74583220,125
10.75583243,871
10.75877476,133
10.77439952,833
10.77439952,134
10.79604197,871
10.80382967,145
10.80842543,842
10.82405448,158
10.82405448,811
10.84200668,173
10.84200668,784
10.85868120,186
10.87608552,761
10.88363314,198
10.89600921,726
10.90601563,222
10.91550350,734
10.92361665,222
10.93577790,698
10.94269896,243
10.95574474,678
10.95803738,253
10.97366333,663
10.97366333,259
10.98929167,649
10.98929167,262
11.01583815,635
11.01583815,285
11.03146672,634
11.03146672,292
11.04709625,599
11.06599879,313
11.07399869,592
11.08211565,330
11.09309077,564
11.09309077,339
11.10971403,503
11.12509084,359
11.13153744,531
11.14257216,368
11.14257216,461
11.15819454,395
11.17382431,481
11.17382431,400
11.18945527,478
11.20508361,414
11.20508361,471
11.22071433,418
11.22071433,432
11.23634410,438
11.25197315,415
11.25197315,462
11.26760340,410
11.28323174,483
11.28323174,425
11.29886222,511
11.31449342,390
11.31449342,560
11.33012414,347
11.33012414,607
11.34575105,334
11.36137938,641
11.36137938,275
11.37701178,682
11.39264464,240
11.39264464,709
11.41566753,215
11.41566753,759
11.42787790,128
11.44320655,790
11.44320655,155
11.46184587,832
11.47565699,128
11.47831655,887
11.49397612,80
11.49430561,941
11.51090431,48
11.52562547,986
11.52789378,17
11.54326892,1017
11.54326892,0
11.55958605,1053
11.55958605,0
11.57638407,1093
11.59582996,0
11.60583282,1114
11.61595535,0
11.62382913,1126
11.63582993,0
11.64583254,1183
11.65583062,0
11.66382885,1229
11.67585659,0
11.68583202,1262
11.69582987,0
11.70382881,1287
11.71582985,0
11.72567725,1301
11.73583007,0
11.74346280,1340
11.75583076,0
11.76583195,1383
11.77576828,0
11.78376794,1402
11.79576778,0
11.80576968,1409
11.81576967,0
11.82377601,1407
11.83577132,0
11.84577417,1449
11.85377359,0
11.86377406,1458
11.87577677,0
11.88577437,1480
11.89577579,0
11.90377688,1535
11.91577673,0
11.92578125,1515
11.93566799,0
11.94384217,1535
11.95516062,0
11.96516013,1532
11.97616196,0
11.98409057,1535
11.99604511,0
12.00588489,1559
12.01509690,0
12.02354670,1595
12.03582931,0
12.04340053,1571
12.05583000,0
12.06351018,1590
12.07550597,0
12.08583140,1590
12.09514952,0
12.10382366,1611
12.11580539,0
12.12546325,1579
12.13446140,0
12.14346147,1584
12.15582919,0
12.16549993,1626
12.17541862,0
12.18377090,1604
12.19582939,0
12.20574284,1669
12.21582961,0
12.22337079,1636
12.23582959,0
12.24583149,1671
12.25574875,0
12.26375055,1616
12.27532840,0
12.28583145,1686
12.29533243,0
12.30382824,1663
12.31534553,0
12.32406807,1653
12.33582926,0
12.34592056,1615
12.35582924,0
12.36358500,1568
12.37514138,0
12.38548398,1653
12.39588976,0
12.40376115,1649
12.41567397,0
12.42583084,1691
12.43584061,0
12.44384098,1671
12.45584249,0
12.46584320,1674
12.47584414,0
12.48384333,1667
12.49584603,0
12.50584650,1680
12.51384974,0
12.52585268,1680
12.53585076,0
12.54585075,1681
12.55385137,0
12.56585240,1643
12.57585216,0
12.58585382,1562
12.59585428,0
12.60385752,1534
12.61573172,0
12.62583089,1503
12.63582873,0
12.64382744,1456
12.65582871,0
12.66582656,1498
12.67582870,0
12.68384361,1535
12.69556403,0
12.70583081,1484
12.71583486,0
12.72328520,1487
12.73582888,0
12.74547505,1399
12.75582910,0
12.76323342,1424
12.77588224,0
12.78588200,1366
12.79388309,0
12.80388403,1386
12.81588531,0
12.82588530,1328
12.83588862,0
12.84388757,1307
12.85588694,0
12.86589265,1327
12.87588859,0
12.88389039,1281
12.89589024,0
12.90589094,1136
12.91589236,0
12.92389345,1232
12.93589330,0
12.94589996,1248
12.95582843,0
12.96382880,1253
12.97570801,0
12.98359776,1233
12.99536538,0
13.00382757,1168
13.01601481,2
13.02566361,1104
13.03582835,6
13.04318118,1117
13.05582905,10
13.06583261,1018
13.07583237,16
13.08382726,992
13.09582925,16
13.10563421,1131
13.11582899,23
13.12382746,1131
13.13582873,19
13.14583039,1083
13.15583944,34
13.16382718,997
13.17582893,39
13.18515992,1011
13.19515991,34
13.20316029,1021
13.21516109,48
13.22516203,1023
13.23516321,55
13.24316311,1013
13.25516415,66
13.26516509,962
13.27516603,82
13.28316593,963
13.29516697,95
13.30617070,885
13.31516838,107
13.32317472,838
13.33517051,121
13.34517217,846
13.35570383,130
13.36382699,883
13.37519670,129
13.38582969,848
13.39519620,134
13.40382695,797
13.41582966,135
13.42568851,774
13.43582940,147
13.44379115,818
13.45606685,156
13.46582937,797
13.47383022,170
13.48554230,777
13.49582958,185
13.50563002,749
13.51382685,203
13.52575397,704
13.53582978,211
13.54573846,699
13.55381942,222
13.56382704,679
13.57600117,238
13.58582997,693
13.59398746,242
13.60595918,659
13.61601973,261
13.62582970,652
13.63382816,274
13.64511466,633
13.65607357,286
13.66582918,612
13.67322350,292
13.68582892,541
13.69582939,314
13.70534348,542
13.71370387,319
13.72604799,543
13.73582911,347
13.74582958,510
13.75382710,357
13.76555276,478
13.77583075,368
13.78567457,479
13.79352069,372
13.80530715,313
13.81582904,395
13.82582903,480
13.83382678,402
13.84383702,473
13.85526276,416
13.86582923,449
13.87391758,427
13.88582921,446
13.89582872,432
13.90603161,433
13.91382670,473
13.92582917,417
13.93514776,500
13.94582891,411
13.95360184,539
13.96560240,355
13.97561479,593
13.98612046,328
13.99412107,629
14.00612307,310
14.01612258,679
14.02612352,269
14.03412414,731
14.04512525,239
14.05612969,749
14.06612587,204
14.07412982,791
14.08566952,171
14.09567213,819
14.10567212,112
14.11367154,865
14.12567472,99
14.13567472,913
14.14567661,61
14.15367556,949
14.16567612,34
14.17567778,990
14.18567777,0
14.19367909,1019
14.20551658,0
14.21551728,1047
14.22451854,0
14.23551917,1087
14.24551964,0
14.25552297,1123
14.26369166,0
14.27572107,1125
14.28542566,0
14.29582930,1167
14.30582738,0
14.31382608,1211
14.32581902,0
14.33582926,1236
14.34582710,0
14.35382605,1274
14.36571670,0
14.37548232,1317
14.38582706,0
14.39382601,1305
14.40484047,0
14.41582894,1322
14.42582679,0
14.43382621,1349
14.44582677,0
14.45582914,1388
14.46551895,0
14.47382593,1387
14.48582697,0
14.49540544,1397
14.50540733,0
14.51540995,1441
14.52582693,0
14.53382587,1456
14.54582715,0
14.55582881,1471
14.56582689,0
14.57384205,1497
14.58582664,0
14.59594989,1513
14.60594869,0
14.61394906,1506
14.62582803,0
14.63571286,1520
14.64582658,0
14.65382600,1506
14.66582656,0
14.67582870,1583
14.68383980,0
14.69382954,1535
14.70582652,0
14.71582890,1552
14.72582698,0
14.73382592,1579
14.74582672,0
14.75582862,1602
14.76582670,0
14.77382612,1647
14.78582692,0
14.79582882,1590
14.80582666,0
14.81382561,1584
14.82533145,0
14.83583522,1589
14.84582639,0
14.85343337,1610
14.86580324,0
14.87555861,1601
14.88582635,0
14.89382553,1670
14.90582657,0
14.91582870,1668
14.92582631,0
14.93382621,1659
14.94582653,0
14.95582938,1627
14.96385336,0
14.97582889,1488
14.98582649,0
14.99582839,1651
15.00382519,0
15.01582837,1661
15.02582598,0
15.03582835,1683
15.04582644,0
15.05384350,1655
15.06585002,0
15.07585096,1648
15.08575296,0
15.09374356,1647
15.10585117,0
15.11584306,1638
15.12587643,0
15.13402247,1651
15.14503598,0
15.15602374,1572
15.16602421,0
15.17402720,1584
15.18602824,0
15.19602895,1613
15.20552611,0
15.21352983,1577
15.22553062,0
15.23553491,1504
15.24253154,0
15.25453472,1600
15.26553345,0
15.27553463,1461
15.28553414,0
15.29353547,1489
15.30553770,0
15.31554055,1462
15.32563591,0
15.33382511,1489
15.34518099,0
15.35582948,1507
15.36582589,0
15.37383485,1498
15.38582611,0
15.39524460,1535
15.40589833,0
15.41365194,1442
15.42554569,0
15.43582821,1378
15.44619989,0
15.45382452,1386
15.46582603,0
15.47550273,1389
15.48582625,0
15.49315453,1365
15.50581145,0
15.51583171,1360
15.52545738,0
15.53385496,1344
15.54511619,0
15.55576468,1357
15.56582618,0
15.57341409,1294
15.58582616,0
15.59583807,1168
15.60529637,0
15.61382461,1187
15.62536979,0
15.63582778,1168
15.64582586,0
15.65367484,1190
15.66518068,0
15.67532539,1200
15.68582582,0
15.69382620,1166
15.70599508,0
15.71582770,1167
15.72528028,0
15.73382449,1103
15.74593639,5
15.75521898,1088
15.76582146,9
15.77324128,1117
15.78582668,18
15.79540038,1079
15.80437875,16
15.81382751,1015
15.82519388,20
15.83582783,1072
15.84582639,26
15.85349846,999
15.86562753,30
15.87582827,1070
15.88582635,41
15.89378381,1038
15.90582609,47
15.91582704,992
15.92583346,59
15.93382478,921
15.94582629,73
15.95582676,893
15.96582603,86
15.97382450,913
15.98582602,95
15.99582672,909
16.00549340,106
16.01382446,808
16.02550054,112
16.03582668,832
16.04582667,112
16.05383062,814
16.06582665,123
16.07582664,816
16.08545661,133
16.09398603,810
16.10327792,137
16.11560702,801
16.12592816,154
16.13582683,780
16.14358234,173
16.15558767,783
16.16582656,189
16.17588401,718
16.18382454,207
16.19553924,719
16.20582652,221
16.21582675,638
16.22320247,230
16.23582697,673
16.24600244,246
16.25514913,682
16.26382422,251
16.27579546,649
16.28582644,262
16.29582644,635
16.30382466,274
16.31582451,642
16.32582569,291
16.33582520,626
16.34406972,304
16.35559106,608
16.36558652,310
16.37558746,581
16.38358688,325
16.39558697,593
16.40559268,336
16.41558957,557
16.42358947,341
16.43558836,557
16.44594932,347
16.45567083,448
16.46366930,368
16.47567105,464
16.48597622,370
16.49597812,496
16.50392342,398
16.51582623,477
16.52592969,397
16.53582668,464
16.54322886,404
16.55542350,412
16.56582642,424
16.57611132,397
16.58382392,467
16.59619117,375
16.60583615,505
16.61583495,368
16.62383151,534
16.63583875,339
16.64584112,571
16.65584064,285
16.66384101,608
16.67583942,284
16.68584013,682
16.69584227,272
16.70384669,701
16.71584535,226
16.72590494,740
16.73584509,186
16.74384594,778
16.75584841,164
16.76584792,816
16.77584934,124
16.78384852,853
16.79585052,57
16.80585408,903
16.81585145,19
16.82385230,944
16.83585286,3
16.84585476,953
16.85385561,0
16.86385751,1002
16.87585616,1
16.88582683,1034
16.89582849,0
16.90357327,1065
16.91582513,0
16.92582655,1094
16.93523288,0
16.94323254,1125
16.95552921,0
16.96582675,1156
16.97517848,0
16.98318172,1203
16.99518514,0
17.00548244,1232
17.01582432,0
17.02382326,1263
17.03578782,0
17.04514933,1322
17.05582452,0
17.06369376,1346
17.07569432,0
17.08569455,1342
17.09569955,0
17.10369825,1381
17.11569619,0
17.12569737,1405
17.13569951,0
17.14369941,1399
17.15570331,0
17.16569996,1432
17.17570186,0
17.18370223,1438
17.19570589,0
17.20570517,1473
17.21570587,0
17.22370720,1489
17.23561406,0
17.24582744,1515
17.25526452,0
17.26382351,1520
17.27591372,0
17.28556705,1509
17.29582429,0
17.30422211,1504
17.31582427,0
17.32517910,1531
17.33552289,0
17.34552479,1518
17.35518599,0
17.36382341,1535
17.37582421,0
17.38583064,1573
17.39583802,0
17.40383482,1584
17.41583562,0
17.42583632,1587
17.43583679,0
17.44383693,1611
17.45583797,0
17.46583629,1616
17.47583747,0
17.48383832,1616
17.49583936,0
17.50583911,1616
17.51484323,0
17.52384090,1604
17.53584266,0
17.54584384,1619
17.55584383,0
17.56382275,1626
17.57564902,0
17.58565450,1615
17.59582424,0
17.60367155,1655
17.61582375,0
17.62560678,1663
17.63561606,0
17.64361668,1668
17.65562248,0
17.66561747,1667
17.67561865,0
17.68362093,1680
17.69562006,0
17.70562530,1679
17.71562171,0
17.72562265,1630
17.73562670,0
17.74362373,1618
17.75562549,0
17.76562619,1618
17.77562809,0
17.78362727,1584
17.79562807,0
17.80582595,1584
17.81582427,0
17.82342863,1680
17.83608532,0
17.84608293,1634
17.85573268,0
17.86382270,1655
17.87584519,0
17.88539886,1632
17.89339852,0
17.90569043,1606
17.91582370,0
17.92533588,1581
17.93382215,0
17.94599533,1535
17.95564580,0
17.96582532,1530
17.97582889,0
17.98382235,1521
17.99582362,0
18.00559998,1502
18.01581550,0
18.02325201,1447
18.03590894,0
18.04590511,1463
18.05555677,0
18.06382203,1393
18.07521033,0
18.08621550,1430
18.09521174,0
18.10351515,1477
18.11582351,0
18.12616801,1434
18.13582397,0
18.14377475,1383
18.15582323,0
18.16582608,1361
18.17350602,0
18.18577433,1361
18.19582391,0
18.20542479,1333
18.21382260,0
18.22612047,1350
18.23612046,0
18.24612045,1283
18.25612116,0
18.26412153,1329
18.27512217,0
18.28612471,1303
18.29512382,0
18.30412412,1282
18.31512523,0
18.32612538,1245
18.33512759,0
18.34412885,1234
18.35579944,0
18.36579919,1202
18.37580228,0
18.38382220,1151
18.39530706,0
18.40530825,1136
18.41530824,0
18.42330861,1179
18.43531013,0
18.44531131,1122
18.45331216,2
18.46331167,1117
18.47531199,2
18.48531771,1102
18.49531460,13
18.50331545,1125
18.51531577,18
18.52531695,1073
18.53531909,18
18.54331779,1063
18.55582333,21
18.56582499,1069
18.57582045,18
18.58351064,1040
18.59514904,37
18.60562253,967
18.61582422,47
18.62382197,989
18.63582373,57
18.64382195,966
18.65582347,68
18.66382217,907
18.67582178,75
18.68582463,875
18.69582343,81
18.70327711,853
18.71582341,96
18.72563672,834
18.73508453,106
18.74385047,805
18.75383210,110
18.76597691,815
18.77582407,113
18.78624797,866
18.79382157,128
18.80589414,842
18.81582355,130
18.82554746,818
18.83382154,144
18.84582424,769
18.85585022,162
18.86534619,804
18.87350440,176
18.88615894,771
18.89582396,199
18.90582442,749
18.91382146,208
18.92582369,723
18.93611193,219
18.94582391,705
18.95376396,240
18.96582389,635
18.97582364,240
18.98606873,624
18.99406719,251
19.00571775,576
19.01582360,262
19.02582383,598
19.03382158,267
19.04582381,592
19.05567384,286
19.06582379,631
19.07332563,304
19.08597946,643
19.09582376,315
19.10563040,603
19.11382103,327
19.12323713,585
19.13593960,336
19.14582372,511
19.15358591,353
19.16582322,531
19.17582417,367
19.18589306,540
19.19382119,370
19.20550537,529
19.21582365,385
19.22582388,501
19.23382163,397
19.24582362,496
19.25582409,400
19.26582360,477
19.27344561,409
19.28581977,498
19.29582429,432
19.30582547,461
19.31382608,458
19.32582688,443
19.33582759,487
19.34582877,414
19.35382867,511
19.36583042,396
19.37583208,548
19.38583207,342
19.39383364,623
19.40383387,330
19.41583490,656
19.42583418,270
19.43383455,683
19.44586277,240
19.45607495,728
19.46607304,209
19.47407389,765
19.48607588,180
19.49607563,809
19.50607705,150
19.51407766,838
19.52608013,118
19.53608012,882
19.54575753,98
19.55368590,915
19.56582355,45
19.57559061,942
19.58553863,43
19.59278440,998
19.60250950,18
19.60250950,1006
19.61891747,0
19.63369060,1023
19.63552666,0
19.65210867,1069
19.65210867,0
19.66855121,1104
19.68366981,0
19.68559170,1149
19.70199728,0
19.70199728,1157
19.71838403,0
19.73525381,1214
19.73525381,0
19.75097966,1281
19.75097966,0
19.76744986,1287
19.78409624,0
19.78409624,1333
19.80064058,0
19.80064058,1355
19.81728292,0
19.83356619,1339
19.83422136,0
19.85059404,1378
19.85059404,0
19.86727214,1410
19.88394094,0
19.88394094,1424
19.90093517,0
19.90093517,1418
19.91720486,0
19.93387961,1437
19.93387961,0
19.95056343,1472
19.95056343,0
19.96716857,1467
19.98452449,0
19.98452449,1497
20.00126243,0
20.00126243,1489
20.01746511,0
20.03395152,1526
20.03395152,0
20.05042768,1511
20.05042768,0
20.06724977,1527
20.08370852,0
20.08370852,1511
20.10172224,0
20.10172224,1535
20.12393332,0
20.13422799,1574
20.14168525,0
20.15158200,1575
20.15158200,0
20.16821337,1559
20.18324375,0
20.18502927,1600
20.20163918,0
20.20163918,1569
20.21799207,0
20.23493648,1603
20.23493648,0
20.25042272,1599
20.25042272,0
20.26838732,1583
20.28463888,0
20.28463888,1599
20.30140090,0
20.30140090,1626
20.32189965,0
20.33408999,1621
20.34570837,0
20.35378289,1616
20.36582088,0
20.36644077,1535
20.38567305,0
20.39567471,1587
20.40608740,0
20.41347718,1602
20.42564559,0
20.43303895,1635
20.43303895,0
20.44866276,1606
20.46429467,0
20.46429467,1611
20.47992373,0
20.47992373,1618
20.50570869,0
20.51595926,1577
20.51629043,0
20.53381968,1616
20.54582071,0
20.54958081,1535
20.56520820,0
20.56520820,1569
20.58083987,0
20.58083987,1535
20.59646749,0
20.61210322,1575
20.62562180,0
20.63617468,1591
20.64517498,0
20.65319395,1604
20.65706348,0
20.66916466,1605
20.68580770,0
20.69102287,1467
20.70238495,0
20.71618104,1433
20.71868801,0
20.73507309,1387
20.73507309,0
20.75337052,1415
20.76606965,0
20.76799726,1360
20.78566909,0
20.79366970,1328
20.80430603,0
20.81616926,1472
20.82515264,0
20.83399081,1433
20.84582043,0
20.85582256,1355
20.86599302,0
20.87070823,1410
20.88582087,0
20.89582253,1433
20.90382051,0
20.91569471,1311
20.91659164,0
20.93163753,1386
20.93163753,0
20.94726562,1367
20.96289539,0
20.96289539,1352
20.97852635,0
20.99415636,1314
21.00582027,0
21.01579165,1294
21.01579165,0
21.03141928,1322
21.03141928,0
21.05514908,1227
21.06580448,0
21.06580448,1239
21.08143139,0
21.08143139,1223
21.10560727,0
21.11398029,1239
21.12505627,0
21.13601637,1179
21.14509392,0
21.15411973,1143
21.16423011,0
21.17528629,1137
21.18533182,0
21.19337320,1151
21.20550966,11
21.21573615,1142
21.22575569,11
21.23415494,1105
21.24599004,11
21.25582290,1106
21.26571655,16
21.27381921,1101
21.28582072,30
21.29582262,1102
21.29882240,30
21.29882240,1072
21.31444716,34
21.33007693,1063
21.34570932,32
21.34570932,1013
21.36133695,47
21.36133695,1001
21.37696648,54
21.39259863,983
21.39259863,62
21.40822577,985
21.42385578,80
21.42385578,912
21.43948531,89
21.45511603,886
21.45511603,95
21.47074676,861
21.47074676,102
21.48637772,883
21.50582123,112
21.51368785,825
21.52582097,112
21.53206825,833
21.53206825,115
21.54769444,816
21.56516719,117
21.57516384,853
21.58319712,122
21.58319712,783
21.60579896,137
21.61479712,806
21.62561083,150
21.63361216,776
21.64561081,163
21.65561414,775
21.66561437,176
21.67361307,707
21.68561411,195
21.69582248,681
21.70582104,207
21.71381879,717
21.72588873,214
21.73582101,705
21.74567485,226
21.75369906,687
21.76575780,237
21.77582169,679
21.78582096,243
21.79382205,659
21.80316329,245
21.81616545,656
21.82616401,267
21.83316517,641
21.84516740,262
21.85516620,637
21.86616826,275
21.87316751,625
21.88516927,298
21.89517379,603
21.90617037,319
21.91317081,511
21.92517304,336
21.93517494,495
21.94517350,346
21.95317364,507
21.96517515,359
21.97517514,499
21.98617697,378
21.99317718,491
22.00517774,385
22.01518011,463
22.02517915,400
22.03318071,459
22.04582119,389
22.05582070,438
22.06582069,414
22.07382369,446
22.08582044,423
22.09582090,456
22.10596681,458
22.11381817,434
22.12582040,479
22.13582063,409
22.14582038,529
22.15381813,403
22.16555667,562
22.17582059,333
22.18283582,603
22.19538236,321
22.20582056,651
22.21578217,290
22.22345614,679
22.23582053,243
22.24560618,727
22.25582051,219
22.26381874,763
22.27389479,171
22.28582048,787
22.29581666,129
22.30381799,832
22.31579685,129
22.32582235,886
22.33514786,51
22.34385610,909
22.35581946,48
22.36582208,931
22.37382269,34
22.38582277,979
22.39582229,16
22.40382314,1023
22.41582680,0
22.42582512,1051
22.43582654,0
22.44368434,1050
22.45509338,0
22.46409440,1085
22.47509575,0
22.48409557,1110
22.49509740,0
22.50609803,1130
22.51609826,0
22.52409887,1174
22.53509998,0
22.54582071,1191
22.55581880,0
22.56381774,1259
22.57511115,0
22.58611226,1287
22.59611630,0
22.60393238,1317
22.61571527,0
22.62599921,1328
22.63581896,0
22.64381838,1353
22.65549779,0
22.66550684,1354
22.67581844,0
22.68381786,1379
22.69581890,0
22.70582151,1389
22.71581864,0
22.72381783,1395
22.73581862,0
22.74573326,1428
22.75581670,0
22.76582050,1444
22.77581859,0
22.78366637,1457
22.79566765,0
22.80566835,1462
22.81566930,0
22.82366991,1476
22.83567142,0
22.84567142,1474
22.85567212,0
22.86367273,1520
22.87567353,0
22.88567328,1529
22.89567494,0
22.90367556,1535
22.91567636,0
22.92567635,1521
22.93567801,0
22.94367862,1535
22.95581865,0
22.96582031,1566
22.97581840,0
22.98381734,1568
22.99581838,0
23.00582051,1581
23.01581192,0
23.02381730,1594
23.03581882,0
23.04590321,1598
23.05590320,0
23.06591797,1614
23.07590604,0
23.08391500,1584
23.09590769,0
23.10590816,1600
23.11591077,0
23.12390971,1603
23.13591170,0
23.14391088,1611
23.15591240,0
23.16391206,1602
23.17591429,0
23.18591452,1592
23.19591618,0
23.20391560,1603
23.21581841,0
23.22582054,1605
23.23582077,0
23.24381685,1611
23.25581813,0
23.26582026,1646
23.27581382,0
23.28375554,1584
23.29581785,0
23.30581999,1601
23.31581783,0
23.32381749,1616
23.33581805,0
23.34389400,1638
23.35581803,0
23.36582017,1595
23.37577987,0
23.38381648,1621
23.39581800,0
23.40581989,1663
23.41581774,0
23.42381763,1600
23.43581772,0
23.44581962,1609
23.45612907,0
23.46388698,1599
23.47611952,0
23.48536658,1671
23.49581742,0
23.50411415,1584
23.51581812,0
23.52612829,1573
23.53607965,0
23.54611254,1506
23.55613065,0
23.56387043,1520
23.57581758,0
23.58587766,1521
23.59300542,0
23.59300542,1486
23.60864615,0
23.62427449,1508
23.63518119,0
23.64209843,1469
23.65581775,0
23.66374183,1483
23.67581987,0
23.68008447,1466
23.69571161,0
23.69738007,1434
23.71353006,0
23.72582006,1424
23.73581743,0
23.74381661,1406
23.74739122,0
23.76301646,1328
23.76301646,0
23.77864647,1340
23.79427838,0
23.79427838,1325
23.80990553,0
23.82553601,1298
23.83596778,0
23.84235263,1283
23.85358715,0
23.86529803,1256
23.87608004,0
23.88554406,1248
23.89354134,0
23.90615845,1079
23.91546273,0
23.92546344,1162
23.93392849,0
23.93392849,1141
23.95568252,0
23.96533084,1137
23.97561646,0
23.98399782,1111
23.99600053,0
24.00605774,1104
24.01594543,0
24.02398753,1119
24.03597426,0
24.04298568,1136
24.05577636,0
24.06326604,1135
24.07411170,6
24.08180690,1123
24.08180690,13
24.09860396,1106
24.11619854,16
24.11688876,1078
24.13068032,16
24.13068032,1065
24.14773822,16
24.16412616,1071
24.16437197,23
24.18054390,995
24.18054390,38
24.19740200,1017
24.21417761,48
24.21417761,1015
24.23087406,58
24.23087406,974
24.24763560,73
24.26377869,943
24.26377869,77
24.28068733,773
24.28068733,92
24.29748082,848
24.31363893,99
24.31363893,849
24.33037686,108
24.34460878,839
24.34708118,112
24.36355186,855
24.36355186,113
24.38046193,879
24.39621305,116
24.39694691,752
24.41283703,130
24.41349864,801
24.43028712,142
24.43028712,752
24.44664335,154
24.46371317,833
24.46371317,166
24.48055220,789
24.49614596,182
24.49701738,766
24.51386619,208
24.51386619,748
24.53022623,208
24.54611945,721
24.54684138,227
24.56379580,697
24.56379580,224
24.58025193,659
24.59614801,239
24.59740782,689
24.61573172,247
24.62573242,681
24.63581824,251
24.64381552,655
24.65581822,263
24.66260219,640
24.66260219,279
24.67822766,640
24.69385934,287
24.69385934,610
24.70948744,298
24.70948744,571
24.72511768,313
24.74074864,555
24.74074864,326
24.75637722,565
24.77200603,340
24.77200603,531
24.79584575,348
24.80583882,521
24.81345749,366
24.81756449,525
24.82976747,384
24.84573030,491
24.84626627,390
24.86285496,499
24.86285496,398
24.87953711,442
24.87953711,413
24.89616680,413
24.91278601,432
24.91278601,354
24.92969060,455
24.94531822,336
24.94615030,503
24.96291280,421
24.96291280,539
24.97986650,379
24.99573922,576
25.00134730,357
25.01303935,614
25.01303935,315
25.02977395,653
25.04633451,283
25.04633451,688
25.06304502,239
25.06304502,703
25.08102798,176
25.08102798,752
25.10521317,181
25.11529064,805
25.12093234,163
25.13593936,836
25.14555621,126
25.15272713,870
25.16322184,89
25.16602612,907
25.18100166,70
25.19551563,938
25.20253730,48
25.21601439,960
25.21601439,77
25.23143816,991
25.23143816,0
25.24809361,1056
25.26437187,0
25.26437187,1067
25.28384352,0
25.29543257,1082
25.30581689,0
25.31519675,1126
25.32581639,0
25.33381486,1157
25.34584308,0
25.35567069,1199
25.36581683,0
25.37381482,1232
25.38581586,0
25.39381790,1233
25.39535880,0
25.41098380,1300
25.41098380,0
25.42661285,1313
25.44592738,0
25.45105243,1334
25.45105243,0
25.46667957,1367
25.48231030,0
25.48231030,1360
25.50231838,0
25.51582074,1372
25.52581596,0
25.53364229,1361
25.54574871,0
25.54574871,1385
25.56137419,0
25.56137419,1403
25.57700539,0
25.59263515,1397
25.60310364,0
25.61373949,1441
25.62581587,0
25.63622141,1459
25.64517570,0
25.65410781,1450
25.66576886,0
25.66915917,1451
25.68544078,0
25.68954277,1483
25.70439696,0
25.71582532,1520
25.72064924,0
25.73341155,1487
25.74611402,0
25.75382376,1451
25.76570845,0
25.76981807,1488
25.78538060,0
25.78715849,1508
25.80263543,0
25.81567526,1632
25.82036185,0
25.83321548,1525
25.84588957,0
25.85193205,1494
25.86556029,0
25.86866212,1535
25.88526058,0
25.89583778,1574
25.90221405,0
25.91381431,1562
25.92581534,0
25.93507004,1574
25.94552994,0
25.95381427,1575
25.96584105,0
25.97584152,1578
25.97820449,0
25.99382973,1520
26.00018954,0
26.01571965,1595
26.02572155,0
26.03398180,1601
26.04466414,0
26.04466414,1578
26.06028986,0
26.06028986,1576
26.07592010,0
26.09154963,1622
26.09154963,0
26.11396050,1614
26.12596226,0
26.13581705,1593
26.14581513,0
26.15381432,1630
26.16126800,0
26.16126800,1652
26.17689347,0
26.19252205,1622
26.19252205,0
26.20815229,1598
26.22378182,0
26.22378182,1646
26.23941183,0
26.25504160,1627
26.25504160,0
26.27067089,1639
26.27067089,0
26.28630233,1647
26.30193043,0
26.30193043,1623
26.31756449,0
26.33319187,1684
26.33319187,0
26.34484649,1577
26.36116576,0
26.36116576,1535
26.37679291,0
26.39242458,1475
26.40561748,0
26.41112614,1486
26.41112614,0
26.42675281,1506
26.44238305,0
26.44238305,1519
26.45801258,0
26.47364211,1513
26.47364211,0
26.48927188,1488
26.50538707,0
26.51313901,1478
26.52513981,0
26.53594828,1441
26.54424882,0
26.54424882,1424
26.55987453,0
26.57550526,1399
26.57550526,0
26.59113574,1392
26.59113574,0
26.61381364,1328
26.62581539,0
26.63581657,1359
26.64558530,0
26.65381360,1335
26.66581511,0
26.67581677,1328
26.68545723,0
26.69372678,1312
26.70581436,0
26.71581674,1269
26.72581530,0
26.73381352,1258
26.74381447,0
26.75570297,1264
26.76581454,0
26.77381372,1169
26.78581452,0
26.79581738,1186
26.80600190,0
26.81339908,1171
26.82544780,0
26.83556747,1167
26.84524107,0
26.85359883,1177
26.86581898,0
26.87551689,1086
26.87875319,5
26.89406657,1099
26.90566492,0
26.91521168,1058
26.92608166,9
26.93320608,1064
26.94547582,13
26.95519876,1088
26.96514845,15
26.97324038,1103
26.98609591,21
26.99430680,1065
26.99975228,16
27.01355553,1100
27.02555728,29
27.03555727,1042
27.04561520,41
27.05355191,977
27.06587100,41
27.07544422,944
27.08543825,64
27.09521604,930
27.10520864,80
27.11367822,911
27.12567925,83
27.12712836,915
27.14275455,91
27.14275455,909
27.15838242,111
27.17401266,819
27.17401266,104
27.18964314,847
27.20527196,111
27.20527196,859
27.22090387,112
27.22090387,885
27.23653054,126
27.25216198,825
27.25216198,133
27.26779008,818
27.28342104,145
27.28342104,804
27.29905033,146
27.31468225,794
27.31468225,177
27.33030963,773
27.34594011,187
27.34594011,708
27.36156917,197
27.36156917,751
27.38539076,209
27.38855743,709
27.38855743,225
27.41520810,707
27.42520857,233
27.42681932,711
27.44244552,244
27.44244552,678
27.45807385,256
27.47370601,639
27.48593116,257
27.49608231,649
27.50564814,275
27.51350617,624
27.51958466,275
27.53525448,582
27.54576206,275
27.55376291,595
27.56180406,294
27.56180406,559
27.57743073,306
27.59305882,545
27.59305882,315
27.60869050,511
27.62431908,332
27.62431908,549
27.64593124,345
27.65588522,490
27.66557741,347
27.67357922,467
27.68558002,368
27.69644356,467
27.70599270,385
27.71403098,496
27.72216988,391
27.73569036,452
27.74631715,384
27.75270605,473
27.76599741,400
27.76997423,449
27.78589010,456
27.79327822,465
27.80286360,465
27.81592894,431
27.81868720,503
27.83356524,386
27.84568477,549
27.85569024,362
27.86562371,592
27.86967230,304
27.88537884,626
27.89571548,292
27.90581489,657
27.91381288,257
27.92581153,701
27.93581486,234
27.94304824,723
27.94304824,153
27.95867610,766
27.97430515,176
27.97430515,804
27.98993492,144
28.00594497,848
28.01024437,222
28.02587366,896
28.03379488,156
28.04581499,933
28.05581450,135
28.05952382,978
28.05952382,30
28.07515073,1007
28.09521651,0
28.10175133,1053
28.11362529,0
28.12562609,1075
28.13562703,0
28.14526606,1085
28.14925694,0
28.16351104,1121
28.17551231,0
28.18561196,1147
28.19294882,0
28.19294882,1202
28.20857453,0
28.22420621,1209
28.22420621,0
28.23983383,1263
28.25546265,0
28.25546265,1285
28.27109194,0
28.27109194,1328
28.28672123,0
28.30235195,1351
28.30235195,0
28.31798100,1337
28.33361340,0
28.34473419,1361
28.34473419,0
28.36036348,1377
28.36036348,0
28.37599230,1382
28.39162517,0
28.39162517,1414
28.40725565,0
28.42288256,1442
28.42288256,0
28.44372773,1472
28.45141220,0
28.45141220,1463
28.47591734,0
28.48581481,1492
28.49582195,0
28.49582195,1470
28.51581264,0
28.52521658,1474
28.53581333,0
28.54318070,1467
28.54318070,0
28.55880642,1483
28.57443690,0
28.58294940,1511
28.59546638,0
28.60581493,1517
28.61547446,0
28.62381411,1527
28.63461733,0
28.64403415,1535
28.65100646,0
28.66562748,1566
28.67584085,0
28.68383574,1557
28.69549823,0
28.70217896,1564
28.71512961,0
28.71980596,1568
28.73526645,0
28.74326944,1568
28.75096130,0
28.76413250,1564
28.77613497,0
28.78513432,1566
28.79252410,0
28.79252410,1569
28.80814934,0
28.82377958,1535
28.83358502,0
28.84529018,1558
28.85581255,0
28.86381149,1589
28.87556314,0
28.87556314,1591
28.89118886,0
28.89118886,1555
28.90682077,0
28.92245007,1533
28.92245007,0
28.93808055,1613
28.95370936,0
28.95370936,1614
28.97509551,0
28.98217988,1580
28.98217988,0
29.00249529,1584
29.01381135,0
29.02604461,1535
29.03581214,0
29.04200149,1584
29.04200149,0
29.05762839,1619
29.07376552,0
29.07376552,1584
29.08999038,0
29.10562086,1581
29.10562086,0
29.12125325,1567
29.12125325,0
29.13687944,1581
29.15250897,0
29.15250897,1535
29.16814065,0
29.18376851,1535
29.18376851,0
29.19940186,1502
29.21502995,0
29.21502995,1481
29.23065805,0
29.23065805,1431
29.24628997,0
29.26191998,1424
29.26191998,0
29.27754807,1484
29.29317784,0
29.29317784,1489
29.30880666,0
29.32443857,1470
29.32443857,0
29.34006834,1472
29.35569787,0
29.35569787,1424
29.37132573,0
29.37132573,1434
29.38695788,0
29.40258813,1395
29.40258813,0
29.41821551,1387
29.43384480,0
29.43384480,1346
29.44947457,0
29.44947457,1344
29.46510267,0
29.48073435,1359
29.48073435,0
29.50394869,1315
29.51587605,0
29.52600837,1343
29.53600311,0
29.54318762,1328
29.54318762,0
29.56585813,1319
29.57386017,0
29.58320165,1317
29.59330487,0
29.59330487,1276
29.60893154,0
29.60893154,1263
29.62455964,0
29.64019179,1239
29.65581965,0
29.65581965,1251
29.67144823,0
29.67144823,1197
29.68707824,0
29.70270777,1187
29.70270777,0
29.71833730,1147
29.73396826,0
29.73396826,1116
29.74959731,7
29.76522803,1122
29.76522803,11
29.78085732,1065
29.78085732,13
29.79650784,1039
29.81212020,15
29.81212020,1040
29.82774687,19
29.84337831,1051
29.84337831,19
29.85900807,1046
29.87463617,23
29.87463617,1063
29.89026785,38
29.90589547,1023
29.90589547,42
29.92152500,1017
29.92152500,50
29.93715549,987
29.95278716,69
29.95278716,959
29.96841526,80
29.98404408,945
29.98404408,90
30.00312519,898
30.01581192,95
30.02581286,858
30.03581238,99
30.04284763,873
30.04284763,109
30.05929303,870
30.07581306,110
30.08381009,877
30.09534836,121
30.10140443,848
30.10140443,112
30.11703205,829
30.13266516,119
30.13266516,746
30.14829350,128
30.16392112,739
30.16392112,151
30.17955184,802
30.19518113,163
30.19518113,784
30.21081281,176
30.21081281,734
30.23603988,186
30.24432111,717
30.25531960,192
30.26632094,698
30.27543020,192
30.28342724,683
30.29518437,203
30.30366802,714
30.31567526,212
30.32368255,679
30.33601570,227
30.34599614,679
30.34874535,241
30.36043739,662
30.37569261,245
30.37718654,656
30.39595389,255
30.39970851,645
30.41560411,270
30.42531109,618
30.43270898,272
30.44389296,609
30.44913816,292
30.46611786,564
30.47522879,315
30.48322630,554
30.49522710,319
30.49978161,584
30.51323771,321
30.51323771,558
30.53581214,336
30.54581213,511
30.55581188,341
30.55732155,523
30.57294989,350
30.57294989,511
30.59579110,370
30.60379243,511
30.61579108,381
30.62581229,469
30.63581204,400
30.64060736,448
30.64961553,428
30.66580129,427
30.66580129,455
30.68143320,448
30.68143320,498
30.69706368,403
30.71269155,539
30.71269155,346
30.72832298,577
30.74395132,338
30.74395132,611
30.76376700,236
30.77536511,655
30.78581190,242
30.79581213,686
30.80380964,203
30.80719280,714
30.82282162,135
30.82282162,750
30.83845043,139
30.85407972,784
30.85407972,138
30.86971116,835
30.86971116,105
30.88533831,869
30.90096974,82
30.90096974,898
30.91659975,53
30.93222713,934
30.93222713,32
30.94785905,977
30.96350265,20
30.96350265,1005
30.97911787,1
30.99519897,1033
30.99982548,0
31.01525593,1045
31.02597213,0
31.03597593,1073
31.04027200,0
31.05589843,1102
31.05589843,0
31.07152987,1134
31.07152987,0
31.08715868,1153
31.10278893,0
31.10278893,1191
31.12571287,0
31.13371372,1177
31.14033890,0
31.15596414,1252
31.15596414,0
31.17159605,1271
31.17159605,0
31.18722391,1279
31.20285583,0
31.20285583,1317
31.21848559,0
31.23411369,1328
31.23411369,0
31.24974513,1343
31.26519680,0
31.27228522,1345
31.27228522,0
31.29388595,1377
31.29691577,0
31.31230593,1403
31.32566381,0
31.33366299,1404
31.34013057,0
31.35575891,1430
31.35575891,0
31.37138820,1465
31.37138820,0
31.38701725,1437
31.40264797,0
31.41394305,1459
31.42574692,0
31.43574691,1456
31.44621277,0
31.45293307,1466
31.46578074,0
31.47514367,1456
31.48073220,0
31.49389720,1491
31.49811435,0
31.51565289,1495
31.52608466,0
31.53197455,1488
31.54596853,0
31.54786348,1553
31.56520915,0
31.57425499,1535
31.58150482,0
31.59523630,1570
31.60523748,0
31.61323714,1565
31.62523913,0
31.63523817,1587
31.64523911,0
31.65323949,1535
31.66524148,0
31.67524290,1579
31.68524265,0
31.69388723,1569
31.70539856,0
31.71539950,1583
31.72540045,0
31.73340058,1506
31.74540138,0
31.75540280,1521
31.76540327,0
31.77340698,1584
31.78540444,0
31.79540658,1535
31.80540586,0
31.81340694,1535
31.82581186,0
31.83581138,1535
31.84580946,0
31.85380816,1558
31.86580968,0
31.87580848,1510
31.88559341,0
31.89380836,1535
31.90580940,0
31.91581130,1529
31.92572141,0
31.93380809,1519
31.94580913,0
31.95387125,1717
31.96580911,0
31.97581148,1735
31.98580956,0
31.99380827,1510
32.00504112,0
32.01581192,1535
32.02580929,0
32.03380823,1535
32.04555726,0
32.05581117,1416
32.06580925,0
32.07350945,1493
32.08580923,0
32.09581137,1425
32.10552478,0
32.11380816,1419
32.12580919,0
32.13581109,1395
32.14380813,0
32.15561724,1427
32.16561794,0
32.17361951,1425
32.18561888,0
32.19562006,1431
32.20561957,0
32.21362042,1426
32.22562242,0
32.23362255,1370
32.24562383,0
32.25362468,1361
32.26562738,0
32.27562690,1360
32.28562641,0
32.29362702,1319
32.30562758,0
32.31562829,1327
32.32562995,0
32.33362985,1279
32.34525013,0
32.35625076,1328
32.36525059,0
32.37325478,1328
32.38525414,0
32.39525270,1330
32.40525413,0
32.41325593,1210
32.42325640,0
32.43581080,1167
32.44581056,0
32.45380759,1202
32.46580911,0
32.47581077,1225
32.48580456,0
32.49380326,1216
32.50546098,0
32.51581144,1183
32.52511144,0
32.53581071,1213
32.54576540,0
32.55380797,1177
32.56561494,0
32.57606888,1154
32.58580899,0
32.59337544,1139
32.60537577,0
32.61581063,1153
32.62538958,0
32.63380766,1109
32.64539504,0
32.65532947,1120
32.66533017,9
32.67387867,1010
32.68580842,7
32.69574165,1059
32.70428181,10
32.71328664,1071
32.72581601,14
32.73581076,1072
32.74558711,19
32.75380707,974
32.76527596,28
32.77589297,989
32.78580928,39
32.79354239,966
32.80519605,57
32.81519437,943
32.82519794,69
32.83319831,946
32.84519792,75
32.85620332,912
32.86520076,80
32.87420058,905
32.88520074,91
32.89320111,868
32.90620303,103
32.91320395,883
32.92520285,106
32.93520403,866
32.94520521,112
32.95320630,830
32.96520805,116
32.97520852,839
32.98581004,123
32.99380636,811
33.00580859,143
33.01581001,760
33.02567053,149
33.03380704,732
33.04532170,167
33.05609727,720
33.06564403,176
33.07363296,752
33.08580971,195
33.09527731,737
33.10593677,208
33.11393332,722
33.12558150,215
33.13577127,695
33.14623547,234
33.15380764,706
33.16581178,237
33.17554045,687
33.18580914,251
33.19319224,671
33.20584846,257
33.21580958,629
33.22580957,272
33.23380685,628
33.24550581,283
33.25550413,624
33.26550651,293
33.27350855,634
33.28550577,316
33.29550648,613
33.30550885,321
33.31350899,592
33.32550859,323
33.33551097,529
33.34551096,339
33.35351086,503
33.36551142,345
33.37551236,496
33.38251495,369
33.39551759,506
33.40567374,375
33.41580915,528
33.42332077,389
33.43580914,496
33.44597173,399
33.45562959,484
33.46380734,406
33.47558832,491
33.48580885,422
33.49528933,439
33.50380731,464
33.51561570,446
33.52512693,490
33.53517818,435
33.54380679,511
33.55588841,346
33.56580901,551
33.57518649,347
33.58380651,592
33.59583998,320
33.60583973,656
33.61583972,286
33.62313342,688
33.63520622,246
33.64579344,721
33.65579748,215
33.66379619,757
33.67579675,171
33.68579769,781
33.69579840,111
33.70379806,833
33.71579885,108
33.72605419,884
33.73605561,82
33.74405479,921
33.75605679,70
33.76605701,955
33.77605796,48
33.78405929,985
33.79506087,0
33.80606198,1006
33.81572819,0
33.82380629,1040
33.83580732,0
33.84580946,1067
33.85249686,0
33.86383605,1104
33.87580729,0
33.88580918,1127
33.89580727,0
33.90380597,1154
33.91580725,0
33.92580891,1200
33.93580723,0
33.94335866,1234
33.95580721,0
33.96580911,1235
33.97580719,0
33.98380589,1280
33.99580717,0
34.00576997,1281
34.01580739,0
34.02380610,1301
34.03580713,0
34.04580903,1317
34.05580735,0
34.06380606,1329
34.07580853,0
34.08525229,1367
34.09580326,0
34.10380602,1360
34.11531115,0
34.12581038,1382
34.13380599,0
34.14580941,1382
34.15600491,0
34.16380596,1446
34.17527056,0
34.18580914,1491
34.19580674,0
34.20380592,1503
34.21580696,0
34.22380662,1521
34.23580694,0
34.24382138,1515
34.25580788,0
34.26580906,1505
34.27558041,0
34.28380609,1535
34.29580736,0
34.30580950,1569
34.31380868,0
34.32380652,1577
34.33580709,0
34.34580898,1583
34.35580707,0
34.36380577,1584
34.37605000,0
34.38580918,1594
34.39580703,0
34.40378451,1616
34.41578341,0
34.42529726,1605
34.43529677,0
34.44393015,1626
34.45584393,0
34.46584392,1607
34.47584486,0
34.48384547,1611
34.49584889,0
34.50584841,1597
34.51584768,0
34.52384853,1637
34.53584933,0
34.54585123,1617
34.55585265,0
34.56385207,1630
34.57585168,0
34.58585334,1659
34.59385395,0
34.60385346,1589
34.61553454,0
34.62537241,1622
34.63580656,0
34.64381480,1632
34.65581512,0
34.66581416,1595
34.67522717,0
34.68354869,1531
34.69554806,0
34.70555830,1580
34.71554947,0
34.72355318,1579
34.73555040,0
34.74555063,1621
34.75556326,0
34.76355267,1612
34.77555370,0
34.78555441,1629
34.79555559,0
34.80355501,1591
34.81580663,0
34.82580853,1573
34.83580661,0
34.84380555,1631
34.85580683,0
34.86580873,1616
34.87557220,0
34.88383508,1570
34.89580631,0
34.90534234,1527
34.91580629,0
34.92380524,1384
34.93580627,0
34.94580865,1479
34.95580626,0
34.96380544,1437
34.97580600,0
34.98580813,1455
34.99580598,0
35.00380516,1497
35.01580596,0
35.02580810,1484
35.03580618,0
35.04380488,1488
35.05580616,0
35.06580806,1456
35.07580686,0
35.08380508,1442
35.09580636,0
35.10580945,1419
35.11580610,0
35.12381220,1360
35.13580632,0
35.14580798,1322
35.15498161,0
35.16383457,1345
35.17580605,0
35.18580818,1398
35.19518304,0
35.20407963,1281
35.21551418,0
35.22508550,1282
35.23561144,0
35.24338174,1247
35.25503540,0
35.26543856,1283
35.27568436,0
35.28380489,1210
35.29580593,0
35.30599165,1201
35.31580591,0
35.32364106,1211
35.33569121,0
35.34229350,1163
35.35594702,0
35.36380196,1187
35.37545943,0
35.38580894,1191
35.39525056,0
35.40390182,1139
35.41580606,0
35.42517757,1151
35.43504429,1
35.44380522,1104
35.45521212,2
35.46595979,1077
35.47580695,10
35.48380470,1080
35.49580622,16
35.50580812,1043
35.51566601,16
35.52330756,1078
35.53580618,23
35.54580784,1067
35.55581069,34
35.56380439,1081
35.57582593,39
35.58582616,1011
35.59599304,48
35.60399389,969
35.61599541,64
35.62299609,961
35.63599825,80
35.64399886,944
35.65599918,84
35.66600037,898
35.67600083,91
35.68400168,910
35.69600224,99
35.70600367,891
35.71600389,111
35.72400379,873
35.73400378,121
35.74600601,880
35.75600672,128
35.76600862,857
35.77400827,131
35.78500628,833
35.79512572,131
35.80612898,816
35.81312656,146
35.82512808,806
35.83512831,160
35.84613180,797
35.85312915,175
35.86513138,767
35.87513113,183
35.88580656,750
35.89380407,192
35.90580630,709
35.91580653,207
35.92365360,707
35.93576503,215
35.94591522,651
35.95641994,219
35.96380424,660
35.97547054,241
35.98572111,641
35.99564648,256
36.00337315,658
36.01580667,262
36.02602625,664
36.03567672,271
36.04380441,624
36.05580616,276
36.06581211,627
36.07581234,284
36.08381200,593
36.09581470,306
36.10581374,589
36.11381602,305
36.12581635,581
36.13581800,326
36.14581776,574
36.15382051,337
36.16581964,534
36.17581940,364
36.18582273,550
36.19382119,359
36.20582199,544
36.21582294,372
36.22608137,497
36.23400545,374
36.24580646,663
36.25557923,397
36.26580715,492
36.27380419,407
36.28565979,490
36.29580617,439
36.30549479,448
36.31380057,481
36.32580614,430
36.33541226,497
36.34580660,383
36.35406446,560
36.36580682,368
36.37504792,594
36.38536787,320
36.39380407,626
36.40580606,288
36.41580629,672
36.42580748,247
36.43380404,711
36.44531751,179
36.45580626,723
36.46580577,141
36.47341371,768
36.48578572,114
36.49615836,827
36.50580764,125
36.51380348,880
36.52580547,93
36.53523540,896
36.54580545,25
36.55370212,944
36.56516051,19
36.57516003,986
36.58516192,7
36.59516430,1019
36.60516620,0
36.61416531,1039
36.62617040,0
36.63616800,1074
36.64516521,0
36.65316772,1088
36.66516685,0
36.67416692,1141
36.68516898,0
36.69516921,1154
36.70517135,0
36.71317244,1199
36.72517180,0
36.73605990,1234
36.74505854,0
36.75406003,1263
36.76506066,0
36.77606225,1295
36.78606391,0
36.79406476,1307
36.80506563,0
36.81606460,1327
36.82606649,0
36.83406782,1353
36.84506679,0
36.85606766,1369
36.86506820,0
36.87406850,1386
36.88506985,0
36.89607239,1408
36.90573215,0
36.91380334,1418
36.92580438,0
36.93580627,1429
36.94580436,0
36.95380306,1447
36.96580410,0
36.97528648,1499
36.98580408,0
36.99380302,1483
37.00502872,0
37.01580596,1499
37.02580428,0
37.03380299,1513
37.04580402,0
37.05580616,1489
37.06580019,0
37.07380295,1498
37.08580470,0
37.09580636,1570
37.10580540,0
37.11380935,1586
37.12580371,0
37.13580585,1594
37.14433622,0
37.15333486,1607
37.16580415,0
37.17580175,1626
37.18580413,0
37.19380307,1617
37.20580411,0
37.21580601,1587
37.22581553,0
37.23381591,1431
37.24581623,0
37.25581837,1593
37.26581764,0
37.27381825,1615
37.28581929,0
37.29582095,1638
37.30582142,0
37.31382442,1534
37.32582474,0
37.33382511,1594
37.34582591,0
37.35582757,1616
37.36582637,0
37.37382698,1637
37.38582778,0
37.39582944,1631
37.40583158,0
37.41383433,1601
37.42582989,0
37.43583202,1612
37.44597387,0
37.45332670,1658
37.46532845,0
37.47580576,1610
37.48539996,0
37.49380279,1616
37.50580359,0
37.51580644,1609
37.52370238,0
37.53535938,1626
37.54570937,0
37.55580544,1585
37.56380272,0
37.57555437,1654
37.58570480,0
37.59312654,1618
37.59312654,0
37.60875440,1629
37.62438488,0
37.62438488,1523
37.64001393,0
37.64001393,1584
37.65564394,0
37.67127323,1587
37.67127323,0
37.68690205,1520
37.70253921,0
37.70253921,1573
37.71816301,0
37.73379230,1270
37.73379230,0
37.74941945,1475
37.76505089,0
37.76505089,1446
37.78569221,0
37.79402018,1503
37.80389071,0
37.80389071,1456
37.81973505,0
37.83639550,1419
37.84240985,0
37.85355496,1381
37.86031938,0
37.87133026,1396
37.88564229,0
37.89191556,1381
37.90315342,0
37.90315342,1411
37.92401242,0
37.92401242,1291
37.94253635,0
37.95259547,1245
37.95259547,0
37.96998000,1251
37.98557019,0
37.98716784,1216
38.00373721,0
38.00373721,1227
38.02047825,0
38.03610682,1278
38.03610682,0
38.05339098,1270
38.05339098,0
38.06901693,1227
38.08464694,0
38.08464694,1125
38.10279012,0
38.10279012,1137
38.12032866,0
38.13595700,1137
38.13595700,0
38.15415096,1057
38.15572119,3
38.17057109,1153
38.18618035,0
38.18632317,1131
38.20558929,4
38.20890117,1107
38.22317839,6
38.23318887,1139
38.23318887,13
38.24882340,1017
38.26445079,16
38.26445079,1040
38.28008175,16
38.29571223,1079
38.29571223,30
38.31134081,958
38.31134081,30
38.32697129,992
38.34473038,42
38.34473038,994
38.36036110,49
38.37598944,966
38.37598944,58
38.39339495,939
38.40255880,80
38.40255880,854
38.41819668,80
38.43381882,861
38.43381882,92
38.45601225,910
38.45907855,103
38.46916413,784
38.48580980,107
38.49406934,880
38.50188398,114
38.50188398,849
38.52516818,115
38.53429008,829
38.54532528,133
38.55605698,818
38.56605601,144
38.57385993,845
38.58614373,139
38.59614515,816
38.60540962,153
38.61340880,795
38.62540722,170
38.63365006,762
38.63365006,187
38.65068793,750
38.65068793,193
38.66631508,734
38.68555045,207
38.69017911,685
38.70547438,227
38.71552944,668
38.72570348,235
38.73370504,612
38.73701382,241
38.75608611,666
38.76598048,255
38.77168584,656
38.78549290,267
38.79548645,639
38.79869938,274
38.79869938,626
38.81431794,286
38.83356833,569
38.83356833,295
38.85342526,531
38.86251879,302
38.86251879,576
38.87814975,313
38.89377928,565
38.89377928,323
38.90940714,504
38.92503619,336
38.92503619,479
38.94066715,343
38.94066715,455
38.95629597,362
38.97192502,486
38.97192502,368
38.98755479,481
39.00318432,379
39.00318432,482
39.01881456,383
39.03444839,451
39.03444839,393
39.05225110,451
39.05225110,422
39.07570457,445
39.08411145,448
39.08889008,451
39.10263515,489
39.10263515,394
39.11886191,525
39.13521981,363
39.13934064,555
39.15277171,325
39.15277171,603
39.16823936,314
39.18335152,641
39.18534970,239
39.20178819,666
39.20178819,201
39.21865582,710
39.23428464,173
39.23428464,754
39.24991417,179
39.26554418,795
39.26554418,161
39.28319049,827
39.28941965,121
39.30187058,870
39.30187058,82
39.31750202,906
39.33312845,69
39.33312845,929
39.34875941,25
39.36438799,967
39.36811781,14
39.38404560,1001
39.38569021,0
39.40146136,1037
39.40146136,0
39.41898417,1050
39.43323088,0
39.43971658,1082
39.45114851,0
39.45114851,1120
39.46863580,0
39.48454165,1141
39.48454165,0
39.50364590,1175
39.50660801,0
39.51803279,1207
39.53509760,0
39.53509760,1206
39.55529022,0
39.55703187,1221
39.56879616,0
39.58409548,1289
39.58873749,0
39.60564590,1328
39.61532807,0
39.62380099,1328
39.63559532,0
39.64559579,1342
39.65580845,0
39.66380048,1395
39.67580199,0
39.68580556,1413
39.69414639,0
39.70380378,1449
39.71576047,0
39.72580361,1497
39.73580146,0
39.74380040,1486
39.75580215,0
39.76571631,1507
39.77580190,0
39.78337121,1457
39.79580116,0
39.80601907,1461
39.81602216,0
39.82380080,1513
39.83580208,0
39.84580350,1520
39.85580158,0
39.86380005,1535
39.87580109,0
39.88519144,1499
39.89580250,0
39.90393281,1535
39.91558409,0
39.92559052,1531
39.93523598,0
39.94380021,1529
39.95588708,0
39.96588850,1535
39.97388816,0
39.98389006,1582
39.99588919,0
40.00589395,1587
40.01589537,0
40.02389169,1642
40.03589773,0
40.04589558,1629
40.05589557,0
40.06389475,1584
40.07589555,0
40.08589768,1600
40.09589720,0
40.10389924,1625
40.11590028,0
40.12590003,1651
40.13590121,0
40.14390135,1605
40.15590096,0
40.16590595,1639
40.17590332,0
40.18590522,1642
40.19590473,0
40.20390558,1658
40.21590662,0
40.22590780,1627
40.23590994,0
40.24379992,1662
40.25580120,0
40.26527572,1616
40.27580070,0
40.28377104,1617
40.29580092,0
40.30557847,1571
40.31523085,0
40.32377052,1584
40.33580089,0
40.34559155,1573
40.35389423,0
40.36380291,1554
40.37580061,0
40.38519287,1598
40.39580083,0
40.40349078,1607
40.41514301,0
40.42614269,1587
40.43593526,0
40.44372463,1533
40.45565486,0
40.46609950,1519
40.47580051,0
40.48379993,1529
40.49580097,0
40.50575995,1469
40.51542306,0
40.52342200,1504
40.53594780,0
40.54580379,1475
40.55542707,0
40.56379986,1419
40.57575178,0
40.58566236,1435
40.59566426,0
40.60366940,1411
40.61568022,0
40.62580347,1402
40.63468266,0
40.64380264,1415
40.65592647,0
40.66592550,1411
40.67580080,0
40.68379974,1394
40.69580030,0
40.70622921,1335
40.71587992,0
40.72387886,1367
40.73552871,0
40.74580264,1330
40.75518084,0
40.76379991,1317
40.77580047,0
40.78522515,1293
40.79522777,0
40.80379963,1280
40.81515098,0
40.82215428,1217
40.83544254,0
40.84379935,1204
40.85509443,0
40.86574769,1189
40.87580061,0
40.88339901,1193
40.89580059,0
40.90605187,1207
40.91517258,0
40.92317629,1183
40.93580580,0
40.94580197,1133
40.95580029,0
40.96379900,1092
40.97580004,5
40.98530793,1105
40.99580145,11
41.00395989,1108
41.01562071,13
41.02561283,1046
41.03526568,17
41.04379678,1017
41.05591798,16
41.06557584,1019
41.07557011,17
41.08357453,1003
41.09580088,33
41.10387230,985
41.11552858,32
41.12352610,962
41.13552713,46
41.14552498,929
41.15552688,59
41.16352797,973
41.17552853,73
41.18553257,945
41.19552970,80
41.20353127,889
41.21553469,90
41.22553110,906
41.23603773,97
41.24404860,896
41.25605011,100
41.26605368,882
41.27605367,109
41.28405499,871
41.29505420,109
41.30605412,863
41.31605887,115
41.32405734,843
41.33605647,123
41.34605813,842
41.35605764,139
41.36405826,810
41.37605977,150
41.38606000,767
41.39406061,166
41.40606594,763
41.41580176,178
41.42580128,743
41.43379879,189
41.44580126,685
41.45580077,196
41.46580148,674
41.47381043,211
41.48381066,659
41.49581146,224
41.50581288,661
41.51381254,233
41.52581358,671
41.53581500,240
41.54581642,642
41.55381632,256
41.56581783,614
41.57581830,272
41.58381844,624
41.59582090,274
41.60581970,554
41.61582208,298
41.62382126,576
41.63580108,304
41.64580083,511
41.65580058,330
41.66379881,569
41.67480659,336
41.68580604,530
41.69580722,347
41.70380735,496
41.71580815,367
41.72580862,477
41.73581004,363
41.74381018,459
41.75581145,377
41.76581144,465
41.77581263,386
41.78381348,343
41.79581475,410
41.80581498,454
41.81581593,437
41.82381678,449
41.83581829,465
41.84580040,432
41.85587955,490
41.86388564,399
41.87580037,555
41.88580060,353
41.89602423,593
41.90379810,304
41.91580057,627
41.92548537,256
41.93580055,670
41.94379807,213
41.95580029,713
41.96531367,216
41.97530890,731
41.98331261,167
41.99531007,779
42.00531197,151
42.01531243,823
42.02331233,112
42.03531456,884
42.04531384,76
42.05231404,906
42.06531763,48
42.07531786,950
42.08531713,61
42.09331799,976
42.10531831,16
42.11532140,1006
42.12531972,13
42.13379860,1055
42.14579892,0
42.15580082,1045
42.16579890,0
42.17379761,1088
42.18579912,0
42.19580102,1116
42.20579886,0
42.21350193,1147
42.22579861,0
42.23580098,1187
42.24379873,0
42.25580096,1203
42.26579881,0
42.27580094,1235
42.28379774,0
42.29580092,1259
42.30564880,0
42.31546760,1294
42.32579899,0
42.33377385,1291
42.34579873,0
42.35584521,1328
42.36567163,0
42.37379766,1341
42.38579893,0
42.39580059,1337
42.40579915,0
42.41335344,1359
42.42535377,0
42.43535447,1377
42.44535637,0
42.45335579,1434
42.46536064,0
42.47535825,1438
42.48535776,0
42.49336076,1433
42.50535941,0
42.51536298,1437
42.52336049,0
42.53336430,1453
42.54536533,0
42.55536413,1462
42.56536770,0
42.57380795,1441
42.58579874,0
42.59579849,1489
42.60579824,0
42.61380172,1483
42.62579846,0
42.63513470,1520
42.64513469,0
42.65413809,1535
42.66514087,0
42.67613721,1555
42.68513751,0
42.69313884,1535
42.70513916,0
42.71414161,1519
42.72514081,0
42.73314357,1506
42.74514246,0
42.75514317,1566
42.76514649,0
42.77314472,1521
42.78514433,0
42.79614782,1579
42.80579877,0
42.81379747,1607
42.82564807,0
42.83580017,1583
42.84579992,0
42.85364389,1623
42.86579847,0
42.87580061,1660
42.88579845,0
42.89379716,1653
42.90579867,0
42.91594315,1639
42.92579842,0
42.93379712,1632
42.94579816,0
42.95580006,1641
42.96579814,0
42.97379684,1628
42.98509264,0
42.99380016,1578
43.00579810,0
43.01384950,1584
43.02579784,0
43.03580022,1580
43.04579830,0
43.05408764,1581
43.06509089,0
43.07609248,1600
43.08609438,0
43.09361291,1627
43.10512924,0
43.11613464,1635
43.12612700,0
43.13412976,1607
43.14613461,0
43.15612912,1502
43.16613221,0
43.17413092,1482
43.18413186,0
43.19551563,1487
43.20551586,0
43.21367669,1486
43.22579765,0
43.23579979,1450
43.24514532,0
43.25379658,1456
43.26562905,0
43.27534628,1472
43.28579760,0
43.29580021,1504
43.30569839,0
43.31358719,1443
43.32558918,0
43.33579993,1360
43.34563351,0
43.35399604,1410
43.36579299,0
43.37579989,1363
43.38579774,0
43.39379668,1360
43.40584302,0
43.41584754,1331
43.42584395,0
43.43384695,1347
43.44574761,0
43.45518708,1296
43.46319032,0
43.47619033,1305
43.48519206,0
43.49571991,1561
43.50272322,0
43.51528358,1308
43.52528167,0
43.53528285,1227
43.54528332,0
43.55328369,1200
43.56528854,0
43.57528543,1343
43.58528614,0
43.59342194,1330
43.60308099,0
43.61559176,1327
43.62097430,0
43.63326573,1282
43.64592433,0
43.65395570,1297
43.66492677,0
43.66492677,1254
43.68004179,0
43.69585729,1241
43.70214653,2
43.71415067,1232
43.71415067,10
43.73134279,1216
43.74576211,16
43.75278449,1107
43.76373672,17
43.76373672,1173
43.77988338,16
43.77988338,1124
43.79622269,27
43.81310296,1159
43.81310296,43
43.82958341,1105
43.84571004,47
43.84670401,1081
43.86294889,66
43.86294889,1023
43.87950826,85
43.89513636,976
43.89711547,101
43.91404462,986
43.91404462,119
43.93095350,979
43.94554710,133
43.95225859,963
43.96606469,142
43.97429991,954
43.97948313,161
43.97948313,932
43.99900270,175
44.01397991,917
44.01397991,186
44.03123498,899
44.04551291,208
44.04752827,840
44.06312966,225
44.07425165,863
44.08102679,256
44.09551835,794
44.09866858,274
44.11455584,816
44.11455584,295
44.13043594,759
44.13043594,318
44.14714813,705
44.16372800,339
44.16372800,687
44.18371391,368
44.19534659,572
44.19724226,399
44.21370578,652
44.21370578,423
44.23142266,511
44.24530149,448
44.24752116,541
44.26394773,491
44.26394773,505
44.27924871,505
44.29569268,477
44.29569268,528
44.31233263,357
44.31233263,562
44.32902551,453
44.32902551,595
44.34570336,424
44.36277866,631
44.36277866,370
44.37994909,656
44.39524937,334
44.39670634,687
44.41290569,257
44.41795850,720
44.43406844,285
44.44617391,752
44.45317292,225
44.46517467,768
44.47617483,221
44.47851849,771
44.47851849,208
44.49414539,815
44.50977731,177
44.52540636,848
44.52540636,137
44.54103422,875
44.54103422,179
44.55666447,912
44.57229424,103
44.57229424,937
44.59570622,73
44.60570407,983
44.61370301,55
44.62570524,1015
44.63548398,33
44.64548612,1050
44.65196729,0
44.66563272,1098
44.66874051,0
44.68433785,1119
44.69598246,0
44.69801974,1151
44.71362305,0
44.71362305,1169
44.73032022,0
44.74587584,1222
44.74688625,0
44.76349521,1265
44.76600385,0
44.77912116,1261
44.79530621,0
44.79530621,1281
44.81199932,0
44.81199932,1351
44.82873750,0
44.82873750,1390
44.84533334,0
44.86192727,1409
44.86192727,0
44.87851596,1456
44.89525414,0
44.89525414,1479
44.91193032,0
44.91193032,1523
44.92864776,0
44.94427562,1578
44.94543171,0
44.96179914,1585
44.96179914,0
44.97841001,1635
44.99520659,0
44.99520659,1661
45.01174426,0
45.01174426,1702
45.02839279,0
45.04500270,1741
45.04500270,0
45.06171918,1744
45.06171918,0
45.07835364,1779
45.09561181,0
45.10371184,1789
45.11173749,0
45.11173749,1810
45.12828350,0
45.14390850,1812
45.14490986,0
45.16156530,1849
45.16156530,0
45.18270183,1855
45.19493985,0
45.19493985,1870
45.21154690,0
45.21154690,1888
45.22833943,0
45.24512720,1891
45.24512720,0
45.26149964,1906
45.26149964,0
45.27840328,1906
45.29556441,0
45.29556441,1908
45.31183243,0
45.31183243,1935
45.32817173,0
45.34379864,1921
45.34475279,0
45.36138034,1937
45.36138034,0
45.37824655,1956
45.39469624,0
45.39469624,1934
45.41192603,0
45.41192603,1943
45.42870975,0
45.44427037,1936
45.44534302,0
45.46521378,1927
45.46521378,0
45.48379445,1979
45.49586153,0
45.50579762,2000
45.51082802,0
45.51082802,1920
45.52645421,0
45.54208493,1968
45.54208493,0
45.55771232,2006
45.57334232,0
45.57334232,2000
45.58897352,0
45.58897352,2042
45.61579323,0
45.62579370,2009
45.63579655,0
45.64379525,1977
45.65579653,0
45.66579747,1968
45.67579913,0
45.68379903,1966
45.69580150,0
45.70579958,1950
45.71481586,0
45.72381449,2005
45.73581600,0
45.74581695,2003
45.75581741,0
45.76381803,1953
45.77581882,0
45.78582001,1953
45.79582119,0
45.80382037,1984
45.81382132,0
45.82582211,1984
45.83582306,0
45.84382415,1889
45.85582471,0
45.86582565,1855
45.87582612,0
45.88379455,1841
45.89579511,0
45.90480280,1890
45.91579509,0
45.92579722,1855
45.93552566,0
45.94379425,1766
45.95579505,0
45.96579719,1891
45.97579503,0
45.98379397,1806
45.99579525,0
46.00579691,1819
46.01579499,0
46.02379394,1713
46.03579497,0
46.04579711,1728
46.05579495,0
46.06379390,1776
46.07579494,0
46.08579683,1701
46.09379530,0
46.10580230,1717
46.11579490,0
46.12579727,1695
46.13281107,0
46.14583373,1699
46.15579510,0
46.16579747,1676
46.17579508,0
46.18380022,1680
46.19579554,0
46.20611477,1610
46.21561790,0
46.22361875,1580
46.23561954,0
46.24562049,1515
46.25562239,0
46.26362157,1498
46.27562261,0
46.28562355,1466
46.29562402,0
46.30362535,1469
46.31562567,3
46.32562613,1441
46.33562708,2
46.34362721,1495
46.35529304,16
46.36529398,1401
46.37329555,29
46.38379383,1371
46.39579535,35
46.40579677,1357
46.41579533,44
46.42379379,1371
46.43579531,49
46.44581723,1281
46.45579553,50
46.46379352,1255
46.47579503,54
46.48579669,1214
46.49580216,67
46.50379372,1163
46.51579547,74
46.52579641,1184
46.53579545,86
46.54379344,1008
46.55579567,105
46.56579638,1075
46.57579565,112
46.58379340,1053
46.59580040,126
46.60579920,1021
46.61579657,133
46.62379408,1038
46.63579559,134
46.64579558,937
46.65379572,138
46.66579580,871
46.67579556,176
46.68579459,891
46.69379354,192
46.70527291,873
46.71527290,218
46.72527456,741
46.73327541,253
46.74327540,721
46.75527716,304
46.76527786,704
46.77327704,345
46.78527880,612
46.79527950,337
46.80528021,735
46.81328058,351
46.82528210,731
46.83528447,347
46.84528327,711
46.85328412,368
46.86528492,730
46.87579632,389
46.88580203,542
46.89379311,439
46.90579581,493
46.91579533,511
46.92579579,585
46.93379283,541
46.94579530,528
46.95579553,574
46.96525693,489
46.97325492,601
46.98525548,477
46.99525642,641
47.00525689,426
47.01425958,675
47.02525878,398
47.03525972,704
47.04526067,331
47.05326080,734
47.06526208,291
47.07526278,778
47.08526373,260
47.09326267,810
47.10526466,224
47.11526513,850
47.12226605,239
47.13579488,879
47.14579535,147
47.15579534,903
47.16379285,119
47.17579508,929
47.18580222,156
47.19579625,955
47.20379305,112
47.21580315,1005
47.22579503,83
47.23553371,1040
47.24379277,53
47.25579572,1088
47.26579475,23
47.27575159,1121
47.28579450,10
47.29379249,1153
47.30579400,6
47.31579566,1203
47.32579350,0
47.33376336,1230
47.34579349,0
47.35579586,1271
47.36579347,0
47.37379289,1322
47.38579369,0
47.39579654,1366
47.40279770,0
47.41579890,1436
47.42561889,0
47.43379259,1499
47.44579363,0
47.45579553,1490
47.46603680,0
47.47381425,1535
47.48581600,0
47.49381804,1535
47.50581551,0
47.51391840,1523
47.52581048,0
47.53586769,1566
47.54581642,0
47.55379200,1625
47.56625032,0
47.57603455,1594
47.58636355,0
47.59326816,1641
47.59326816,0
47.60890865,1699
47.62493086,0
47.62493086,1759
47.64016390,0
47.65616226,1802
47.65616226,0
47.67403722,1811
47.67627621,0
47.69579577,1859
47.70579386,0
47.71381998,1861
47.72578788,0
47.72681642,1858
47.74245548,0
47.74245548,1856
47.75808501,0
47.77372360,1953
47.77372360,0
47.78983498,1986
47.80539227,0
47.80539227,2039
47.82061362,0
47.82061362,1993
47.83628440,0
47.85187411,2000
47.85187411,0
47.86749768,2011
47.88310838,0
47.88310838,2057
47.89873838,0
47.89873838,2039
47.91436744,0
47.93555021,2033
47.94061422,0
47.94061422,2103
47.96586990,0
47.97532773,2133
47.97532773,0
47.99095392,2133
47.99095392,0
48.00658441,2155
48.02221346,0
48.02221346,2127
48.03784275,0
48.05347419,2190
48.05347419,0
48.06910324,2193
48.08473563,0
48.08473563,2025
48.10036325,0
48.10036325,2112
48.11599064,0
48.13162160,2224
48.13162160,0
48.14725065,2192
48.16288161,0
48.16288161,2231
48.18360519,0
48.19357777,2175
48.20579290,0
48.21419215,2182
48.22491288,0
48.22692943,2011
48.24255490,0
48.24255490,2042
48.25818610,0
48.27381516,2023
48.27381516,0
48.28944731,2167
48.30507374,0
48.30507374,2131
48.32070446,0
48.32070446,1893
48.34445882,0
48.34445882,2101
48.36008596,0
48.36008596,2161
48.37571692,0
48.39134932,2160
48.39134932,0
48.40697622,2116
48.42260480,0
48.42260480,2100
48.43823576,0
48.45386457,2043
48.45386457,0
48.46949553,1935
48.48512387,0
48.49383759,2031
48.50555968,0
48.50820136,2015
48.52384853,0
48.52384853,1761
48.54594922,0
48.55013514,1798
48.56578636,0
48.56578636,1809
48.58185363,0
48.59579444,1987
48.60579324,0
48.61379123,1923
48.62465382,0
48.62465382,1872
48.64027977,0
48.64027977,1779
48.65590906,0
48.67590427,1902
48.67590427,0
48.69380546,1877
48.70579219,0
48.71581721,1862
48.72549963,0
48.72549963,1832
48.74154854,0
48.75675726,1773
48.75675726,0
48.77238798,1743
48.77238798,0
48.78801918,1520
48.80404902,0
48.80404902,1648
48.81969953,0
48.81969953,1621
48.83491206,0
48.85092282,1661
48.85092282,0
48.86618161,1485
48.88181400,0
48.88181400,1554
48.89743519,0
48.91307330,1553
48.91307330,0
48.92869639,1520
48.94433236,0
48.94433236,1477
48.95995355,0
48.97559166,1444
48.97559166,0
48.99120426,1440
48.99120426,0
49.01583123,1421
49.02490878,2
49.02490878,1360
49.04382896,9
49.05621171,1371
49.05984926,10
49.07388878,1315
49.07439613,29
49.09002733,1292
49.10565734,42
49.10565734,1217
49.12128758,59
49.12128758,1139
49.13691783,80
49.15254521,1114
49.15254521,96
49.16817641,1039
49.18532658,127
49.19595098,1099
49.20595074,143
49.21406746,1001
49.22406697,157
49.22610641,1037
49.24173212,166
49.24173212,986
49.25736070,180
49.27299118,974
49.27299118,188
49.28862071,924
49.30424976,217
49.30424976,892
49.31988049,241
49.33551216,845
49.33551216,263
49.35114169,798
49.35114169,300
49.36676955,784
49.38240051,325
49.38240051,734
49.39803171,357
49.41417408,631
49.42428088,377
49.42428088,637
49.44354868,405
49.45431304,642
49.45431304,423
49.46994352,592
49.46994352,459
49.48557138,494
49.50120139,475
49.50120139,485
49.51683211,511
49.53331709,366
49.54579282,545
49.55579305,393
49.55717587,577
49.57280111,511
49.57280111,602
49.58843088,460
49.58843088,640
49.61579251,431
49.62579274,664
49.63579297,383
49.64379025,685
49.65579271,318
49.66579270,720
49.67577672,299
49.68325520,755
49.69579244,295
49.70579267,784
49.71579337,208
49.72358942,829
49.73579240,219
49.74579263,848
49.75579309,185
49.76405382,899
49.77379394,174
49.78579259,942
49.79579329,144
49.80381703,954
49.81579399,105
49.82589817,985
49.83584857,74
49.84418416,1043
49.85626054,48
49.86585236,1079
49.87627244,16
49.88381720,1117
49.89620543,10
49.90583587,1161
49.91624618,21
49.92417169,1205
49.93624997,0
49.94583106,1219
49.95638585,0
49.96427965,1263
49.97622037,0
49.98621249,1307
49.99620223,0
50.00379372,1322
50.01625466,0
50.02622509,1358
50.03618479,0
50.04381013,1395
50.05455828,0
50.06624079,1440
50.07609296,0
50.08391809,1483
50.09624314,0
50.10624099,1511
50.11624384,0
50.12390304,1555
50.13582850,0
50.14591503,1565
50.15417194,0
50.16677046,1653
50.17623758,0
50.18578744,1653
50.19282556,0
50.20579314,1711
50.21579099,0
50.22615838,1709
50.23585248,0
50.24385309,1763
50.25585389,0
50.26585531,1787
50.27585578,0
50.28385615,1793
50.29585719,0
50.30585837,1885
50.31585979,0
50.32386088,1854
50.33586359,0
50.34547663,1901
50.35547757,0
50.36347795,1903
50.37548089,0
50.38548064,1982
50.39547992,0
50.40347958,2007
50.41548157,0
50.42548132,2020
50.43448353,0
50.44348359,2039
50.45548534,0
50.46548533,1986
50.47548556,0
50.48348641,2059
50.49548769,0
50.50548863,1946
50.51549006,0
50.52349019,2079
50.53548956,0
50.54577160,2080
50.55579042,0
50.56378937,2094
50.57579041,0
50.58579159,2026
50.59579372,0
50.60378909,1995
50.61579037,0
50.62522888,2074
50.63522792,0
50.64522815,2065
50.65523005,0
50.66377091,2079
50.67577291,0
50.68577409,2106
50.69577456,0
50.70377588,2128
50.71577621,0
50.72577715,2137
50.73577738,0
50.74377847,1995
50.75577879,0
50.76577973,2229
50.77578020,0
50.78382421,2210
50.79579067,0
50.80579233,2169
50.81479740,0
50.82381868,2153
50.83578992,0
50.84579206,2160
50.85579014,0
50.86378932,2155
50.87579012,0
50.88579202,2179
50.89579010,0
50.90378904,2064
50.91578984,0
50.92579222,2047
50.93579030,0
50.94378877,2095
50.95578980,0
50.96579194,2105
50.97579002,0
50.98379374,2128
50.99579334,0
51.00579500,2084
51.01578999,0
51.02379012,2069
51.03571606,0
51.04579210,2055
51.05579042,0
51.06378889,2064
51.07578993,0
51.08580732,2003
51.09282970,0
51.10383272,2030
51.11581397,0
51.12586236,2058
51.13586378,0
51.14386392,2020
51.15586472,0
51.16586518,2019
51.17486596,0
51.18591309,2011
51.19588232,0
51.20586944,1940
51.21486902,0
51.22586989,1921
51.23492146,0
51.24587131,1930
51.25487185,0
51.26587391,1921
51.27487350,0
51.28387475,1873
51.29478931,0
51.30579185,1875
51.31479001,0
51.32579160,1786
51.33478975,0
51.34579158,1815
51.35479045,0
51.36579156,1795
51.37478971,0
51.38579154,1761
51.39478970,0
51.40579152,1727
51.41479087,0
51.42579293,1741
51.43479228,0
51.44579363,1666
51.45479393,0
51.46579552,1655
51.47279406,0
51.48379636,1620
51.49479651,0
51.50579643,1617
51.51479650,0
51.52579737,1594
51.53479838,0
51.54579902,1535
51.55479932,0
51.56580043,1534
51.57480121,0
51.58579159,1395
51.59322739,1
51.59322739,1334
51.60885262,1
51.62448406,1331
51.62448406,11
51.64011216,1422
51.65574193,19
51.65649533,1406
51.67573643,35
51.67573643,1365
51.69579053,51
51.70559001,1265
51.71578956,80
51.72262049,1275
51.72262049,93
51.73824692,1168
51.75387812,112
51.75387812,1182
51.76950693,133
51.78513575,1182
51.78513575,157
51.80076790,1118
51.80076790,167
51.81639552,974
51.83283591,193
51.84299183,943
51.84299183,203
51.85862231,880
51.85862231,227
51.87425208,980
51.88988209,244
51.90551114,954
51.90551114,272
51.92113972,907
51.92113972,307
51.93677163,841
51.95239854,338
51.95239854,762
51.96802950,384
51.98366165,635
51.98366165,421
51.99929070,688
52.01492047,452
52.01492047,599
52.03055048,486
52.03055048,611
52.04617882,529
52.06181097,592
52.06181097,550
52.07743931,549
52.09553576,571
52.10469699,425
52.10469699,601
52.12032652,405
52.12032652,654
52.13595629,432
52.15158606,679
52.15158606,355
52.16721773,721
52.18526006,317
52.19378781,756
52.20479369,293
52.21579194,797
52.22579074,285
52.23378778,825
52.23873568,201
52.25436211,855
52.25436211,189
52.26999068,887
52.28562093,189
52.28562093,935
52.30125308,176
52.30125308,966
52.31688118,157
52.33250952,976
52.34401846,122
52.34467483,1003
52.36030483,35
52.37593484,1037
52.37593484,33
52.39156723,1081
52.39156723,64
52.40719748,1115
52.42282414,22
52.42282414,1139
52.44466615,0
52.45569229,1167
52.45569229,0
52.47553039,1223
52.48164082,0
52.48164082,1252
52.49726510,0
52.51289511,1277
52.51289511,0
52.52852488,1317
52.54415751,0
52.54415751,1361
52.55978441,0
52.57541490,1389
52.57541490,0
52.59104395,1424
52.60478878,0
52.61579084,1443
52.62478828,0
52.63579035,1488
52.63844156,0
52.65406704,1493
52.65406704,0
52.67380214,1535
52.67380214,0
52.69578004,1574
52.70490408,0
52.71579027,1605
52.72173762,0
52.72173762,1588
52.74494004,0
52.75394177,1649
52.75449252,0
52.77011728,1715
52.77011728,0
52.78574800,1694
52.80138016,0
52.80138016,1727
52.81700993,0
52.83263826,1774
52.83263826,0
52.84826779,1814
52.86389923,0
52.86389923,1841
52.87952566,0
52.89515924,1875
52.89515924,0
52.91078734,1918
52.91078734,0
52.92641640,1868
52.94204402,0
52.94204402,1998
52.95767403,0
52.97330356,2007
52.97330356,0
52.98893404,2002
53.00456309,0
53.00456309,2073
53.02019310,0
53.03582239,2091
53.03582239,0
53.05145240,2098
53.05145240,0
53.06708312,2098
53.08271265,0
53.08271265,1875
53.09834337,0
53.11397171,2125
53.11397171,0
53.12960386,2119
53.12960386,0
53.14523196,2142
53.16086173,0
53.16086173,2079
53.18105936,0
53.19543266,2206
53.20448279,0
53.21547914,2191
53.22251892,0
53.22251892,2192
53.23814464,0
53.25477648,2208
53.25477648,0
53.27579021,2201
53.28478742,0
53.28730679,2256
53.30293179,0
53.30293179,2229
53.31856179,0
53.33419085,2231
53.33419085,0
53.34982324,2207
53.34982324,0
53.36545300,2219
53.38108134,0
53.38108134,2204
53.39671159,0
53.41234279,2173
53.41234279,0
53.42797065,2166
53.44360328,0
53.44360328,2166
53.45923162,0
53.47486043,2133
53.47486043,0
53.49049282,2171
53.49049282,0
53.51575327,2144
53.51675630,0
53.53238416,2001
53.53238416,0
53.54801440,1996
53.56364417,0
53.56364417,2064
53.57927346,0
53.59507227,1901
53.60478783,0
53.61508203,2057
53.62208056,0
53.63508177,2036
53.64408278,0
53.65508294,2032
53.66408443,0
53.67408514,2058
53.68408656,0
53.69608760,1942
53.70408916,0
53.71608829,2029
53.72408915,0
53.73508978,2023
53.74408984,0
53.75609112,2002
53.76409125,0
53.77578902,1984
53.78416872,0
53.79578900,1936
53.80478692,0
53.81578970,1930
53.82478762,0
53.83578968,1840
53.84446645,0
53.85578918,1867
53.86278677,0
53.87579060,1849
53.88478756,0
53.89578986,1709
53.90278721,0
53.91578937,1748
53.92478776,0
53.93579245,1789
53.94478703,0
53.95584226,1680
53.96478701,0
53.97578931,1663
53.98478699,0
53.99578905,1610
54.00478911,0
54.01578927,1571
54.02478695,0
54.03578901,1535
54.04478741,0
54.05578899,1533
54.06478691,0
54.07578874,1503
54.08468246,0
54.09568310,1440
54.10468388,2
54.11568475,1451
54.12568521,14
54.13568592,1392
54.14368701,18
54.15568757,1374
54.16568804,36
54.17569017,1307
54.18268991,39
54.19569135,1282
54.20569062,48
54.21569252,1277
54.22569275,61
54.23369408,1301
54.24578714,75
54.25578880,1231
54.26578712,87
54.27378535,1219
54.28578806,122
54.29578924,1145
54.30578876,144
54.31378555,1136
54.32579350,163
54.33279109,987
54.34578800,171
54.35378599,1007
54.36578798,197
54.37578773,885
54.38554406,329
54.39378643,734
54.40559030,465
54.41578794,617
54.42599440,510
54.43368292,556
54.44370198,578
54.45570397,505
54.46570396,605
54.47570539,364
54.48370814,679
54.49570704,337
54.50570917,745
54.51570797,336
54.52370906,803
54.53570986,262
54.54571152,880
54.55571246,191
54.56371164,923
54.57571459,176
54.58571315,931
54.59571600,165
54.60371852,929
54.61571503,129
54.62578773,969
54.63378692,69
54.64546323,1019
54.65578747,16
54.66578817,1104
54.67278624,0
54.68557191,1185
54.69478679,0
54.70578837,1199
54.71479201,0
54.72479177,1203
54.73478675,0
54.74578810,1241
54.75478601,0
54.76578856,1211
54.77478576,0
54.78579140,1201
54.79478621,0
54.80578828,1190
54.81478620,0
54.82578826,1168
54.83478713,0
54.84578800,1153
54.85478616,0
54.86549926,1212
54.87467146,0
54.88569808,1232
54.89478612,0
54.90578818,1221
54.91278601,0
54.92578816,1292
54.93478584,0
54.94578815,1339
54.95278597,0
54.96578932,1333
54.97475719,0
54.98577905,1409
54.99477863,0
55.00378108,1424
55.01477909,0
55.02578068,1457
55.03478050,0
55.04578209,1488
55.05478263,0
55.06578302,1488
55.07478690,0
55.08579469,1504
55.09378505,0
55.10578632,1527
55.11478686,0
55.12578773,1515
55.13479352,0
55.14578891,1535
55.15478611,0
55.16546273,1553
55.17478561,0
55.18577337,1501
55.19261265,0
55.20578766,1489
55.21463585,0
55.22578788,1483
55.23278546,0
55.24578762,1463
55.25478554,0
55.26578760,1424
55.27478600,0
55.28381419,1423
55.29478550,0
55.30603004,1442
55.31404185,0
55.32578778,1410
55.33409715,0
55.34578776,1405
55.35478568,0
55.36578894,1328
55.37478566,0
55.38525653,1351
55.39465356,0
55.40578747,1317
55.41478539,0
55.42578745,1295
55.43478680,0
55.44568110,1291
55.45497990,0
55.46578741,1279
55.47278452,0
55.48565102,1283
55.49467111,0
55.50567627,1275
55.51419091,0
55.52519202,1273
55.53419161,0
55.54519463,1264
55.55419493,0
55.56519485,1232
55.57419515,0
55.58619905,1213
55.59364414,0
55.60344839,1168
55.60344839,0
55.61946368,1105
55.61946368,0
55.63632870,1113
55.65294909,0
55.65294909,1103
55.66953635,0
55.68530273,1069
55.69168329,0
55.70228720,1063
55.70228720,0
55.71896124,1037
55.73458815,0
55.73562288,989
55.75237966,11
55.75237966,995
55.76888537,17
55.76888537,939
55.78560090,23
55.80222297,944
55.80222297,35
55.81886125,911
55.83548546,48
55.83548546,907
55.85216856,58
55.85216856,895
55.86885190,243
55.88554668,1009
55.88554668,272
55.90292573,976
55.90292573,275
55.91876769,912
55.93539953,298
55.93539953,943
55.95214939,319
55.95214939,931
55.96870399,321
55.96870399,843
55.98545790,348
56.00316668,853
56.00316668,357
56.01988530,751
56.03596711,383
56.03709865,758
56.05341530,411
56.05341530,713
56.07038808,411
56.08593774,682
56.08734870,425
56.10368776,662
56.10368776,449
56.12020874,633
56.13571882,474
56.13571882,624
56.15348172,480
56.15348172,592
56.17033863,507
56.17033863,551
56.19246483,549
56.20334816,536
56.20334816,551
56.21998382,495
56.23470592,579
56.24485922,476
56.25308466,577
56.25308466,511
56.26962471,597
56.28606820,467
56.28606820,593
56.30343652,430
56.30343652,619
56.32295871,341
56.33576751,640
56.34384799,336
56.35578632,657
56.36578584,305
56.37578607,688
56.38378358,303
56.39562869,707
56.40593386,269
56.41592789,708
56.42398572,111
56.43595576,665
56.43595576,80
56.45547366,691
56.46283269,78
56.47585893,721
56.48479056,64
56.49593639,734
56.50218654,40
56.51530004,767
56.52522826,16
56.53607726,793
56.54244137,0
56.55574298,784
56.56478548,0
56.57614899,851
56.58250952,0
56.59578562,865
56.60482645,0
56.61578560,862
56.62278461,0
56.63578582,846
56.64478660,0
56.65381265,848
56.66478467,0
56.67510462,870
56.68442464,0
56.68877506,864
56.70499706,0
56.71599603,898
56.72499728,0
56.73635364,900
56.74235129,0
56.75535321,895
56.76435304,0
56.77515554,987
56.78515005,0
56.79565144,778
56.80415654,0
56.81515741,795
56.81754708,0
56.83317494,831
56.84438944,0
56.85578561,838
56.86476159,0
56.86749792,848
56.88312340,0
56.88312340,851
56.89875317,0
56.91438293,837
56.91438293,46
56.93001318,971
56.94564366,61
56.94564366,978
56.96250725,63
56.97566056,975
56.98410964,78
56.98410964,987
56.99973536,80
57.01536489,1002
57.01536489,68
57.03099442,1009
57.03099442,62
57.04662442,1013
57.06225443,64
57.06225443,1002
57.07788563,68
57.09351444,1008
57.09351444,60
57.10914564,1023
57.12477422,64
57.12477422,1049
57.14040112,76
57.14040112,1023
57.15603304,83
57.17584014,1006
57.18599033,89
57.19399023,1011
57.20518255,94
57.21543264,995
57.21850801,97
57.21850801,996
57.24340105,99
57.25149035,993
57.25149035,101
57.26861095,1008
57.28382874,85
57.28531981,1040
57.30188322,61
57.30188322,1105
57.31843019,42
57.33544040,1136
57.33544040,27
57.35338259,1150
57.35493851,21
57.37578583,1157
57.38578415,13
57.39378238,1195
57.40034676,18
57.40034676,1227
57.41597223,15
57.43160319,1232
57.43160319,18
57.44723153,1223
57.46286201,17
57.46286201,1249
57.47849226,17
57.49578524,1261
57.50578403,14
57.51378226,1328
57.51691127,16
57.53253794,1328
57.53253794,18
57.54816866,1354
57.56604266,23
57.57513928,1392
57.57614183,27
57.59176993,1375
57.59176993,34
57.61565471,1392
57.62565541,43
57.63365579,1388
57.64565682,43
57.65565825,1375
57.66565871,48
57.67366004,1433
57.68566036,37
57.69566178,1456
57.70566177,57
57.71366119,1389
57.72566199,64
57.73466372,1402
57.74566460,68
57.75366497,1392
57.76566601,68
57.77566719,1366
57.78566742,80
57.79366851,1364
57.80566883,81
57.81567025,1361
57.82566953,80
57.83367014,1354
57.84567189,80
57.85578489,1343
57.86578393,79
57.87378216,1392
57.88578367,73
57.89558220,1386
57.90458298,0
57.91558385,1301
57.92458558,0
57.93558526,1326
57.94458723,0
57.95558810,1297
57.96458864,0
57.97558975,1274
57.98458982,0
57.99559069,1274
58.00459170,0
58.01559210,1221
58.02259350,0
58.03559351,1232
58.04459405,0
58.05578494,1177
58.06278276,0
58.07578468,1203
58.08478260,0
58.09578443,1226
58.10478282,0
58.11381149,1104
58.12478280,0
58.13578486,1125
58.14478278,0
58.15578556,1049
58.16478252,0
58.17514062,1039
58.18478298,0
58.19578505,1061
58.20494509,0
58.21578455,1041
58.22478366,0
58.23576713,1018
58.24537301,12
58.25588131,971
58.26586199,26
58.27286196,939
58.28586292,39
58.29586649,895
58.30286765,49
58.31586599,905
58.32586932,62
58.33286715,853
58.34586763,78
58.35629129,987
58.36629295,272
58.37229276,945
58.38629484,287
58.39429760,935
58.40629458,301
58.41329789,896
58.42629790,309
58.43629670,880
58.44601107,317
58.45304751,845
58.46580648,339
58.47580862,811
58.48581505,345
58.49280739,803
58.50580788,368
58.51581120,769
58.52581334,389
58.53280997,749
58.54581165,398
58.55578399,716
58.56578112,426
58.57278538,665
58.58378696,434
58.59578395,672
58.60578537,442
58.61278510,659
58.62578535,464
58.63578725,592
58.64578581,468
58.65378785,576
58.66578579,490
58.67578435,674
58.68578339,509
58.69279814,690
58.70578361,526
58.71565008,570
58.72578359,559
58.73230147,550
58.74578357,563
58.75578356,499
58.76560616,597
58.77284789,473
58.78425765,624
58.79578352,467
58.80578423,621
58.81281257,432
58.82578349,620
58.83578324,416
58.84578371,631
58.85281229,228
58.86418581,482
58.87518597,192
58.88618684,501
58.89218688,161
58.90518785,528
58.91619134,138
58.92519045,545
58.93319297,115
58.94519210,623
58.95519257,80
58.96325183,651
58.97523618,66
58.98523712,656
58.99523950,31
59.00324249,666
59.01524711,0
59.02523923,677
59.03424287,0
59.04424167,707
59.05424285,0
59.06624460,719
59.07424378,0
59.08424592,721
59.09485555,0
59.10585690,743
59.11485744,0
59.12485695,765
59.13485694,0
59.14578342,774
59.15280867,0
59.16525245,779
59.17464209,0
59.18578362,795
59.19264054,0
59.20545721,799
59.21478176,0
59.22549391,789
59.23285913,0
59.24389243,807
59.25478172,0
59.26617074,829
59.27278161,0
59.28578305,820
59.29478168,0
59.30595231,832
59.31278157,0
59.32578301,837
59.33478236,0
59.34593940,853
59.35199690,0
59.36607599,865
59.37478185,0
59.38578272,859
59.39278173,0
59.40578318,882
59.41478205,0
59.42565751,905
59.43278313,0
59.44378304,910
59.45433664,0
59.46622729,914
59.47222877,0
59.48575425,934
59.49478173,0
59.50578308,911
59.51278019,0
59.52459931,910
59.53467155,0
59.54578280,901
59.55278111,0
59.56590009,926
59.57478142,0
59.58578277,930
59.59278131,0
59.60428929,944
59.60428929,0
59.62068057,955
59.63317800,0
59.64552665,971
59.65462184,39
59.66524124,1136
59.67278194,55
59.68578386,1156
59.69478202,59
59.70578313,1119
59.71516538,64
59.72271180,1137
59.73471570,65
59.74571705,1136
59.75471807,79
59.76371789,1135
59.77423286,77
59.78582120,1153
59.79422235,80
59.80318499,1151
59.81498265,92
59.82597399,1105
59.83497453,0
59.84597635,1078
59.85442090,0
59.86520672,1007
59.87453651,0
59.88578272,1085
59.89478183,0
59.90578318,1142
59.91504908,0
59.92578387,1209
59.93478107,0
59.94578314,1232
59.95478106,0
59.96418858,1272
59.96951962,0
59.98578286,1315
59.99478149,0
60.00578284,1357
60.01488042,0
60.02578330,1383
60.03452706,0
60.04552841,1399
60.04810691,0
60.06373429,1483
60.06373429,0
60.08543873,1602
60.09443927,0
60.09805036,1781
60.11471105,0
60.12572837,2263
60.13248825,0
60.14548755,2293
60.15453911,0
60.16575646,2482
60.17443871,5
60.18605185,2464
60.19480395,4
60.20578313,2480
60.21491671,14
60.22578287,2497
60.23467898,9
60.23774838,2474
60.25478125,15
60.26528168,2483
60.27478123,16
60.28380942,2451
60.29477763,21
60.30578303,2442
60.31460905,17
60.32375956,2073
60.33478117,16
60.34578252,2045
60.35478139,16
60.36478281,1969
60.37478113,16
60.38112044,2047
60.38112044,6
60.40578222,1821
60.41478014,0
60.42578220,1910
60.43100190,0
60.43100190,2087
60.44662857,7
60.46272206,2089
60.46706057,13
60.48380899,2087
60.49478102,17
60.50578237,2068
60.51493788,19
60.51493788,1967
60.53056502,37
60.53056502,1681
60.54619455,48
60.56182408,2069
60.56182408,35
60.57745218,2128
60.59308481,42
60.59308481,2368
60.61422682,0
60.62588143,2373
60.63223624,0
60.64523864,2395
60.65127039,0
60.65127039,2374
60.66745114,0
60.68308401,2379
60.68308401,0
60.69871140,2343
60.71434093,0
60.71434093,2330
60.72997141,0
60.74560165,2320
60.75468898,2
60.76475811,2359
60.76475811,0
60.78038526,2339
60.78038526,6
60.79820371,2368
60.81472445,0
60.81472445,2373
60.83121777,0
60.83121777,2346
60.84807611,0
60.86450458,2321
60.86450458,4
60.88142681,2321
60.88142681,12
60.90333152,2315
60.91477990,0
60.92578101,2239
60.93125224,15
60.93125224,2281
60.94687819,12
60.96250892,2307
60.97415686,10
60.98122549,2299
60.98122549,25
61.00521684,2285
61.01429152,16
61.02328706,2291
61.03233099,23
61.03233099,2289
61.04795599,26
61.06358671,2282
61.06358671,17
61.07921648,2275
61.09484625,27
61.09484625,2239
61.11047745,33
61.11047745,2233
61.13478088,48
61.14278412,2207
61.14705777,41
61.16268325,2192
61.16268325,33
61.17831397,2183
61.19394207,39
61.19394207,2225
61.20957112,31
61.22520256,2189
61.22520256,32
61.24083233,2139
61.24083233,39
61.25646472,2120
61.27209282,43
61.27209282,2141
61.28772306,98
61.30335355,2106
61.30335355,66
61.31898260,2006
61.33461213,80
61.33461213,1996
61.35024142,75
61.35024142,1938
61.36587048,66
61.38150120,1997
61.38150120,66
61.39712739,1967
61.41276026,0
61.41276026,1863
61.42838812,0
61.44564390,1794
61.45437479,0
61.45642638,1760
61.47473478,0
61.48526835,1680
61.49427056,0
61.50511980,1665
61.51412082,0
61.51516294,1625
61.53078914,0
61.53078914,1619
61.54641986,0
61.56566477,1535
61.57278228,0
61.57278228,1466
61.58841491,0
61.60527062,1398
61.61427093,0
61.62527204,1360
61.63477588,16
61.64578128,1319
61.65477967,32
61.66351008,1367
61.67478037,51
61.68377805,1232
61.69477963,80
61.70380831,1163
61.71594167,103
61.72594213,1175
61.73594236,126
61.74394321,1168
61.75594401,143
61.76594448,1049
61.77594662,162
61.78394747,1061
61.79394770,175
61.80594659,1013
61.81594920,197
61.82595062,960
61.83295035,234
61.84595060,883
61.85595298,250
61.86595178,867
61.87295461,286
61.88595533,816
61.89555597,313
61.90578079,779
61.91255975,315
61.92578030,752
61.93547797,355
61.94578028,700
61.95281744,396
61.96578693,631
61.97578526,439
61.98343539,608
61.99543381,496
62.00543547,507
62.01573849,541
62.02279568,448
62.03578043,582
62.04577994,337
62.05555534,625
62.06269360,278
62.07556057,643
62.08578038,281
62.09555578,682
62.10279512,271
62.11578012,718
62.12578011,212
62.13530254,753
62.14279509,186
62.15579534,804
62.16579580,140
62.17379642,844
62.18479800,48
62.19579816,906
62.20479870,39
62.21380043,972
62.22480106,0
62.23580265,1068
62.24480176,0
62.25580263,1147
62.26480460,0
62.27580476,1232
62.28480577,0
62.29580784,1301
62.30480933,0
62.31555343,1373
62.32477856,0
62.33555317,1399
62.34495044,0
62.35592532,1439
62.36242914,0
62.37566710,1535
62.38477874,0
62.39530635,1609
62.40277886,0
62.41578054,1731
62.42477846,0
62.43578076,1774
62.44477820,0
62.45355415,1762
62.46477818,0
62.47571969,1843
62.48435378,0
62.49535346,1923
62.50495386,0
62.51555896,1975
62.52456784,0
62.53555417,2030
62.54455495,0
62.55555534,2043
62.56455731,0
62.57555723,2115
62.58411241,0
62.59611344,2135
62.60411286,0
62.61572313,2203
62.62474370,0
62.63587475,2271
62.64287615,0
62.65587640,2271
62.66487741,0
62.67587757,2301
62.68287897,0
62.69587994,2294
62.70488095,0
62.71578050,2309
62.72477818,0
62.73455191,2305
62.74477887,0
62.75578022,2278
62.76477838,0
62.77578020,2287
62.78477812,0
62.79538035,2262
62.80477834,0
62.81577969,2275
62.82477808,0
62.83577991,2287
62.84477878,0
62.85543656,2288
62.86477780,0
62.87577987,2265
62.88477874,0
62.89555502,2257
62.90455532,0
62.91578007,2196
62.92277789,0
62.93580723,2207
62.94456291,0
62.95577979,2189
62.96255779,0
62.97555804,2192
62.98455977,0
62.99555874,2181
63.00456047,0
63.01356173,2235
63.02456164,0
63.03556252,2226
63.04456329,0
63.05607605,2256
63.06407380,0
63.07607508,2251
63.08407712,0
63.09607792,2222
63.10407734,0
63.11607766,2207
63.12407875,0
63.13555479,2222
63.14455748,0
63.15549922,2170
63.16477752,0
63.17554903,2209
63.18455768,0
63.19602752,2203
63.20277834,0
63.21380639,2194
63.22477770,0
63.23577929,2201
63.24404597,0
63.25555491,2207
63.26463747,0
63.27577996,2198
63.28477788,0
63.29478574,2145
63.30477762,0
63.31578064,2175
63.32477784,0
63.33577943,2174
63.34477758,0
63.35574389,2191
63.36477757,0
63.37578177,2179
63.38473582,0
63.39585495,2189
63.40477729,0
63.41555595,2193
63.42477727,0
63.43577981,2160
63.44477940,0
63.45555401,2192
63.46445847,0
63.47577929,2187
63.48277640,0
63.49511504,2159
63.50455427,0
63.51578021,2143
63.52277875,0
63.53549027,2187
63.54449725,0
63.55577946,2162
63.56477904,0
63.57478738,2176
63.58477783,0
63.59566760,2159
63.60477734,0
63.61148262,2158
63.61148262,0
63.62711120,2160
63.64273787,0
63.64273787,2160
63.65836692,0
63.67399693,2134
63.67399693,0
63.68962622,2150
63.68962622,0
63.70525670,2111
63.72088790,0
63.72088790,2123
63.73651814,0
63.75214720,2098
63.75214720,0
63.76777697,2117
63.78434253,0
63.79582381,2096
63.80482340,0
63.81140852,2126
63.81140852,0
63.82703471,2086
63.84266520,0
63.84266520,2071
63.85829568,0
63.87392616,2098
63.87392616,0
63.89566779,2083
63.90031338,0
63.91530466,2023
63.92035103,0
63.93032646,1927
63.94452739,0
63.94546056,1908
63.96452022,0
63.96869135,1989
63.97881198,0
63.99538541,2014
63.99538541,0
64.01575255,2026
64.02475357,0
64.03575587,1980
64.04463410,0
64.05576634,1904
64.06422782,0
64.07522440,1887
64.07897472,0
64.09564114,1839
64.09564114,0
64.11548090,1791
64.12448096,0
64.13524556,1770
64.14508367,0
64.15582371,1705
64.16178226,0
64.16178226,1648
64.18499541,0
64.19352007,1635
64.20486617,0
64.20967412,1599
64.20967412,0
64.22529888,1433
64.24092889,0
64.24092889,1450
64.26424122,21
64.27344203,1407
64.28275275,47
64.28879285,1328
64.30441904,73
64.30441904,1276
64.32005143,92
64.33568144,1252
64.34485531,112
64.34485531,1104
64.36048722,127
64.36048722,1085
64.38551354,151
64.38551354,1085
64.40380597,169
64.40380597,1057
64.41943741,186
64.42998004,990
64.44588590,209
64.45556092,944
64.46341991,234
64.46341991,873
64.48506570,258
64.49533224,800
64.49684787,263
64.51405644,807
64.51405644,304
64.52978802,774
64.52978802,339
64.54541898,725
64.56583834,368
64.56732368,675
64.57951212,429
64.59530044,545
64.60563660,489
64.61590505,448
64.62279248,534
64.62735415,368
64.64575219,589
64.65599036,320
64.65599036,624
64.67162132,306
64.67974901,664
64.69537401,269
64.69537401,703
64.71416664,245
64.71460271,751
64.73150444,211
64.73150444,775
64.74945760,145
64.76614594,818
64.77201200,112
64.78347278,885
64.78431034,61
64.79993916,953
64.81426644,24
64.81426644,1002
64.83084822,0
64.84609723,1088
64.84760666,0
64.86323380,1150
64.86323380,0
64.87958908,1190
64.87958908,0
64.89521575,1278
64.91363764,0
64.91363764,1308
64.93102741,0
64.94501448,1372
64.94766474,0
64.96396184,1410
64.96396184,0
64.98512363,1469
64.99433327,0
64.99640846,1531
65.01498890,0
65.01897883,1623
65.02982855,0
65.04621029,1653
65.04659224,0
65.06219292,1718
65.06219292,0
65.07920098,1744
65.09487629,0
65.09583831,1810
65.11268878,0
65.11268878,1871
65.13039422,0
65.14484167,1902
65.15403914,0
65.16339493,1951
65.16339493,0
65.18016005,2012
65.18016005,0
65.19578600,2063
65.21142268,0
65.21142268,2125
65.22704625,0
65.24267840,2166
65.24267840,0
65.25830555,2203
65.27393675,0
65.27918506,2286
65.29480982,0
65.29480982,2293
65.31044531,0
65.31044531,2315
65.32802963,0
65.34481907,2320
65.34481907,0
65.36174464,2311
65.36174464,0
65.38268304,2311
65.39444304,0
65.40477729,2283
65.41477656,0
65.42578268,2303
65.43477607,0
65.44377422,2286
65.44377422,0
65.45939946,2317
65.45939946,0
65.47502947,2283
65.49066114,0
65.49066114,2258
65.50629187,0
65.52191901,2176
65.52191901,0
65.53755045,2192
65.55317974,0
65.55317974,2237
65.56881070,0
65.58443761,2202
65.58443761,0
65.60577774,2227
65.61477637,0
65.62477732,2210
65.63477516,0
65.64577723,2262
65.65468216,0
65.66455936,2231
65.67477679,0
65.68577743,2258
65.69355631,0
65.70280647,2216
65.71477509,0
65.72577715,2245
65.73477483,0
65.74477410,2247
65.75477529,0
65.76577711,2214
65.77463508,0
65.78477693,2224
65.79477501,0
65.80577826,2223
65.81477523,0
65.82455087,2218
65.83477497,0
65.84577703,2205
65.85477567,0
65.86477709,2193
65.87477541,0
65.88577700,2217
65.89464688,0
65.90477705,2183
65.91455936,0
65.92577672,2189
65.93477488,0
65.94477773,2166
65.95477509,0
65.96577716,2192
65.97378659,0
65.98377657,2189
65.99477482,0
66.00577664,2189
66.01477480,0
66.02416396,2160
66.03477597,0
66.04577708,2163
66.05478740,0
66.06478810,2173
66.07478857,0
66.08578968,2171
66.09479070,0
66.10479188,2190
66.11479187,0
66.12579298,2166
66.13479328,0
66.14479423,2158
66.15479469,0
66.16479516,2157
66.17479634,0
66.18479776,2147
66.19479871,0
66.20579863,2170
66.21477461,0
66.22455239,2144
66.23477483,0
66.24577665,2147
66.25477529,0
66.26355100,2160
66.27477479,0
66.28577757,2123
66.29477453,0
66.30477762,2128
66.31477833,0
66.32577896,2098
66.33478141,0
66.34445524,2099
66.35445642,0
66.36545730,2119
66.37445831,0
66.38446045,2097
66.39445901,0
66.40546036,2115
66.41446137,0
66.42446113,2092
66.43446207,0
66.44546509,2078
66.45446467,0
66.46546793,2101
66.47446537,0
66.48446727,2059
66.49411798,0
66.50577641,2032
66.51477051,0
66.52477622,1959
66.53477430,0
66.54556465,1947
66.55456066,0
66.56456327,1985
66.57456207,0
66.58556390,1990
66.59557056,0
66.60456681,1985
66.61456966,0
66.62556672,1883
66.63456631,0
66.64356995,1871
66.65456867,0
66.66557097,1869
66.67457008,0
66.68457150,1834
66.69457197,0
66.70557380,1803
66.71457243,0
66.72357273,1746
66.73257375,0
66.74557853,1769
66.75457907,0
66.76359487,1680
66.77459478,0
66.78559637,1648
66.79459882,0
66.80359745,1600
66.81477404,0
66.82515502,1535
66.83477569,0
66.84577608,1514
66.85477591,10
66.86379576,1381
66.87478042,31
66.88577580,1355
66.89477491,54
66.90379572,1317
66.91464829,80
66.92606640,1298
66.93477488,94
66.94379687,1232
66.95477509,109
66.96577573,1185
66.97477508,129
66.98355031,1103
66.99455214,150
67.00577664,1088
67.01354837,174
67.02280521,1051
67.03277302,199
67.04463220,980
67.05477500,210
67.06477523,941
67.07277298,235
67.08477521,915
67.09477520,259
67.10477567,880
67.11277246,274
67.12477493,815
67.13477564,314
67.14462233,784
67.15263033,344
67.16463208,718
67.17463350,397
67.18463421,638
67.19264603,450
67.20463443,572
67.21463537,497
67.22463703,531
67.23263741,560
67.24464107,448
67.25463986,608
67.26464057,402
67.27264166,624
67.28464174,340
67.29464316,652
67.30464482,301
67.31264400,701
67.32464433,251
67.33464456,745
67.34464645,243
67.35264635,784
67.36464715,182
67.37464833,825
67.38464808,133
67.39264989,883
67.40465021,75
67.41465020,974
67.42465091,50
67.43365216,1038
67.44465327,11
67.45573068,1085
67.46435523,0
67.47335577,1157
67.48445940,0
67.49545908,1215
67.50345993,0
67.51246071,1264
67.52446246,0
67.53546619,1314
67.54446292,0
67.55346417,1366
67.56446457,0
67.57546496,1424
67.58446884,0
67.59370494,1488
67.59370494,0
67.60933876,1535
67.62496138,0
67.62496138,1600
67.64059162,0
67.64059162,1663
67.65622091,0
67.67185116,1727
67.67185116,0
67.68747950,1789
67.70311141,0
67.70311141,1838
67.71873903,0
67.73436975,1894
67.73436975,0
67.74999952,1959
67.74999952,0
67.76563025,1977
67.78125906,0
67.79399562,2064
67.80510426,0
67.81531715,2121
67.82454991,0
67.82454991,2162
67.84017539,0
67.85580635,2210
67.85580635,0
67.87143517,2294
67.87143517,0
67.88706565,2302
67.90269542,0
67.90269542,2299
67.91832614,0
67.93395472,2311
67.93395472,0
67.94958329,2291
67.94958329,0
67.96521473,2309
67.98084545,0
67.98084545,2272
67.99647236,0
68.01210451,2279
68.01210451,0
68.03367472,2287
68.04459167,0
68.05605221,2288
68.06511927,0
68.07317853,2298
68.08432770,0
68.09555078,2249
68.10477352,0
68.11377454,2269
68.12481332,0
68.13554835,2213
68.14484835,0
68.15377808,2219
68.16477275,0
68.17577481,2240
68.18477273,0
68.19073844,2221
68.19073844,0
68.20636368,2238
68.22199368,0
68.22199368,2249
68.23762417,0
68.25325489,2259
68.25325489,0
68.26888347,2275
68.28451347,0
68.28451347,2228
68.30517125,0
68.31331325,2240
68.31532955,0
68.33095741,2153
68.34458351,0
68.34458351,2219
68.36021185,0
68.37584138,2253
68.37584138,0
68.39388609,2214
68.40422773,0
68.41577268,2220
68.42421889,0
68.43535185,2240
68.44446826,0
68.45361519,2230
68.46508241,0
68.47582030,2197
68.48441839,0
68.49442768,2205
68.50521517,0
68.51555181,2193
68.52460456,0
68.53402925,2192
68.54477215,0
68.55577421,2194
68.56477213,0
68.57397223,2173
68.58469391,0
68.59603953,2179
68.60477185,0
68.61391544,2179
68.62492490,0
68.63577485,2170
68.64454794,0
68.64825010,2177
68.66416597,0
68.67543650,2187
68.68442917,0
68.69357204,2162
68.70457411,0
68.71536732,2141
68.72467589,0
68.73384786,2134
68.74168468,0
68.74168468,2160
68.75829077,0
68.77371407,2155
68.77479148,0
68.79143238,2167
68.79143238,0
68.81394124,2130
68.82454133,0
68.82526493,2115
68.84071350,0
68.84071350,2130
68.85742593,0
68.87362242,2126
68.87410474,0
68.89071131,2137
68.89071131,0
68.90727305,2131
68.92399907,0
68.92399907,2151
68.94229174,0
68.94229174,2118
68.95905352,0
68.97545123,2112
68.97686911,0
68.99232173,2114
68.99232173,0
69.00932407,2090
69.02451420,0
69.03351355,2074
69.04407740,0
69.04746842,2075
69.06480289,0
69.07397294,2037
69.08497334,0
69.09600639,1927
69.10419083,0
69.11369276,2030
69.12438321,0
69.13325596,1982
69.14496708,0
69.15210509,1984
69.16464114,0
69.17325735,2000
69.17566490,0
69.19111657,1999
69.19111657,0
69.20707941,1890
69.22270679,0
69.22368622,1879
69.24206448,0
69.24206448,1858
69.25884938,0
69.27575278,1824
69.27575278,0
69.29203773,1798
69.29203773,0
69.31369710,1727
69.32513237,0
69.32552981,1688
69.34222555,0
69.34222555,1461
69.35876346,0
69.37312078,1469
69.38031697,0
69.39207888,1442
69.39207888,0
69.41305113,1473
69.42503285,10
69.43035722,1421
69.44470668,36
69.44710994,1355
69.46354318,64
69.47598171,1277
69.47945857,86
69.49554896,1165
69.50477242,114
69.51577377,1117
69.52300167,144
69.53377342,1079
69.54483485,158
69.55489969,918
69.56309628,179
69.57422757,917
69.58509302,199
69.59518766,851
69.59648561,226
69.61430049,847
69.62430429,252
69.63430190,814
69.64230371,276
69.65430331,721
69.66430426,297
69.67430806,708
69.68230557,314
69.69430661,708
69.70430684,359
69.71477222,626
69.72255397,380
69.73477411,605
69.74477243,431
69.75277233,528
69.76477242,485
69.77477217,464
69.78477454,558
69.79277015,397
69.80477214,603
69.81477952,355
69.82477212,657
69.83254766,187
69.84477258,709
69.85477352,234
69.86445904,715
69.87245941,211
69.88477206,752
69.89477181,91
69.90477276,806
69.91277146,0
69.92477250,863
69.93477154,67
69.94277191,912
69.95456004,0
69.96477270,976
69.97477150,0
69.98354769,1039
69.99477077,0
70.00567985,1111
70.01477098,0
70.02377272,1170
70.03277063,0
70.04577255,1259
70.05477166,0
70.06377244,1307
70.07477045,0
70.08577275,1358
70.09477043,0
70.10354829,1399
70.11477137,0
70.12466574,1476
70.13477039,0
70.14577270,1526
70.15477037,0
70.16352344,1590
70.17455626,0
70.18554592,1650
70.19477057,0
70.20377254,1695
70.21477079,0
70.22577310,1781
70.23477101,0
70.24377251,1808
70.25477123,0
70.26577282,1869
70.27411604,0
70.28377247,1953
70.29476500,0
70.30541587,2014
70.31277108,0
70.32577252,2017
70.33477092,0
70.34577250,2064
70.35279369,0
70.36377215,2199
70.37477088,0
70.38555932,2195
70.39406657,0
70.40377593,2241
70.41477036,0
70.42554808,2276
70.43477058,0
70.44377255,2310
70.45458198,0
70.46577239,2309
70.47477031,0
70.48377228,2302
70.49359298,0
70.50579476,2293
70.51479316,0
70.52377200,2283
70.53501010,0
70.54579830,2290
70.55477023,0
70.56338596,2259
70.57456112,0
70.58527470,2305
70.59427762,0
70.60627747,2288
70.61427546,0
70.62327671,2245
70.63427734,0
70.64527845,2230
70.65427876,0
70.66327977,2231
70.67482138,0
70.68382263,2226
70.69482541,0
70.70382357,2203
70.71482921,0
70.72582841,2192
70.73482680,0
70.74382710,2192
70.75482845,0
70.76582885,2186
70.77482915,0
70.78383088,2249
70.79483056,0
70.80583453,2268
70.81483221,0
70.82383394,2223
70.83483243,0
70.84583449,2192
70.85483503,0
70.86383486,2211
70.87283945,0
70.88583708,2205
70.89483809,0
70.90383911,2206
70.91483808,0
70.92508245,2223
70.93408203,0
70.94408131,2194
70.95408344,0
70.96608210,2227
70.97208595,0
70.98608375,2205
70.99408579,0
71.00408554,2190
71.01408720,0
71.02508950,2197
71.03408813,0
71.04309249,2155
71.05475354,0
71.06354594,2197
71.07440948,0
71.08377194,2163
71.09476948,0
71.10571170,2169
71.11477017,0
71.12336302,2161
71.13476968,0
71.14577198,2115
71.15453267,0
71.16377163,2161
71.17431545,0
71.18577194,2157
71.19476938,0
71.20377159,2096
71.21476936,0
71.22555041,2165
71.23454809,0
71.24354672,2144
71.25454760,0
71.26554918,2163
71.27454925,0
71.28355074,2123
71.29454970,0
71.30555415,2160
71.31455398,0
71.32355380,2173
71.33455348,0
71.34455490,2136
71.35455418,0
71.36555505,2147
71.37455893,0
71.38355660,2144
71.39455795,0
71.40556169,2135
71.41455913,0
71.42356086,2119
71.43455958,0
71.44556165,2114
71.45456648,0
71.46354675,2126
71.47476912,0
71.48555613,2003
71.49455857,0
71.50354624,2079
71.51476932,0
71.52577114,2082
71.53277016,0
71.54354596,2081
71.55476952,0
71.56577134,2007
71.57476926,0
71.58377123,2087
71.59474111,0
71.60577106,2053
71.61476994,0
71.62376881,2064
71.63476920,0
71.64577103,2029
71.65476918,0
71.66377115,1903
71.67476892,0
71.68577099,1837
71.69476914,0
71.70354581,1907
71.71476889,0
71.72577071,1904
71.73476863,0
71.74354792,1891
71.75413656,0
71.76577330,1783
71.77415228,0
71.78354573,1838
71.79476929,0
71.80577087,1814
71.81276917,0
71.82554460,1808
71.83476925,0
71.84577107,1755
71.85277009,0
71.86354542,1697
71.87455320,0
71.88555431,1607
71.89455533,0
71.90355563,1634
71.91455603,0
71.92555785,1484
71.93455863,0
71.94355774,1445
71.95455980,7
71.96556044,1419
71.97456050,38
71.98356104,1245
71.99456310,62
72.00556278,1233
72.01456499,86
72.02356362,1223
72.03456473,115
72.04556608,1177
72.05456662,135
72.06356788,1114
72.07456899,155
72.08556986,1059
72.09457088,176
72.10357046,1014
72.11257148,206
72.12457228,955
72.13477015,222
72.14476991,887
72.15276742,255
72.16476989,660
72.17476988,278
72.18477011,798
72.19276786,302
72.20476985,755
72.21476960,320
72.22454381,749
72.23254371,354
72.24476981,707
72.25477123,385
72.26454449,649
72.27276826,432
72.28477025,592
72.29477000,494
72.30454564,464
72.31276774,556
72.32454467,385
72.33476949,590
72.34464240,343
72.35254502,651
72.36477041,303
72.37456083,688
72.38476992,208
72.39276743,737
72.40412450,116
72.41476965,775
72.42477083,173
72.43276739,817
72.44476891,94
72.45476985,853
72.46476912,75
72.47276759,912
72.48277044,6
72.49476957,977
72.50476837,0
72.51354527,1061
72.52476811,0
72.53577018,1134
72.54476833,0
72.55377030,1199
72.56476784,0
72.57378721,1287
72.58476830,0
72.59552813,1299
72.60461736,0
72.61377025,1382
72.62462115,0
72.63562346,1412
72.64462423,0
72.65362477,1488
72.66462564,0
72.67562699,1483
72.68462753,0
72.69362712,1599
72.70462871,0
72.71562910,1631
72.72462964,0
72.73363018,1715
72.74463105,0
72.75563121,1791
72.76363254,0
72.77363348,1765
72.78463411,0
72.79576993,1919
72.80476785,0
72.81376982,1946
72.82454705,0
72.83556247,1982
72.84499359,0
72.85394144,1995
72.86476779,0
72.87577033,2107
72.88476801,0
72.89377117,2192
72.90426850,0
72.91577077,2213
72.92454243,0
72.93376589,2257
72.94476604,0
72.95608187,2285
72.96493220,0
72.97393370,2217
72.98493552,0
72.99593353,2310
73.00493431,0
73.01393533,2283
73.02493954,0
73.03593922,2255
73.04393768,0
73.05393958,2263
73.06448102,0
73.07604313,2256
73.08497334,0
73.09397483,2271
73.10497737,0
73.11597657,2277
73.12497687,0
73.13377023,2288
73.14476728,0
73.15590000,2263
73.16476846,0
73.17377520,2240
73.18476772,0
73.19576955,2253
73.20485640,0
73.21376944,2209
73.22450829,0
73.23376942,2199
73.24476743,0
73.25581312,2206
73.26476765,0
73.27376938,2213
73.28476763,0
73.29550385,2231
73.30476999,0
73.31376958,2250
73.32476783,0
73.33554506,2251
73.34476757,0
73.35372758,2235
73.36476731,0
73.37554669,2224
73.38476777,0
73.39376926,2213
73.40455437,0
73.41554499,2203
73.42255306,0
73.43576908,2192
73.44476748,0
73.45586038,2209
73.46276712,0
73.47376919,2208
73.48476768,0
73.49554396,2214
73.50459552,0
73.51377153,2217
73.52476740,0
73.53535676,2195
73.54435897,0
73.55336189,2206
73.56436038,0
73.57536149,2186
73.58436275,0
73.59350395,2176
73.60460615,0
73.60644913,2160
73.62289095,0
73.62289095,2150
73.63708758,0
73.65580368,2170
73.65639043,0
73.67299509,2179
73.67299509,0
73.68972898,2174
73.70347404,0
73.70347404,2176
73.71983624,0
73.73597693,2168
73.73941588,0
73.75257826,2173
73.75604296,0
73.77086806,2170
73.77086806,0
73.78758192,2154
73.80417490,0
73.80417490,2146
73.82451582,0
73.82451582,2141
73.84476757,0
73.85493040,2165
73.86476731,0
73.86917686,2123
73.88480473,0
73.88480473,2176
73.90042925,0
73.90042925,2129
73.91606236,0
73.93169141,2105
73.93169141,0
73.95491385,2121
73.95794082,0
73.95794082,2089
73.97357011,0
73.98919964,2115
74.00483131,0
74.00483131,2113
74.02045870,0
74.02045870,2093
74.03608894,0
74.05171990,2080
74.05171990,0
74.06734991,2112
74.07386112,0
74.09017897,2079
74.09017897,0
74.10580730,2025
74.12143755,0
74.12143755,2055
74.13706946,0
74.15269947,2025
74.15269947,0
74.16832829,2029
74.18396020,0
74.18396020,1968
74.19958854,0
74.21459103,1968
74.22430420,0
74.23230553,1969
74.23558044,0
74.25120854,1883
74.25120854,0
74.26683736,1823
74.28480315,0
74.29467487,1818
74.30224013,0
74.30224013,1783
74.31786680,0
74.33349633,1526
74.33349633,0
74.34464502,1557
74.36027551,0
74.36027551,1494
74.37590480,0
74.39153600,1469
74.39153600,0
74.40716577,1506
74.42279458,0
74.42279458,1495
74.43842626,0
74.45477223,1435
74.46488833,15
74.47284913,1392
74.47647834,38
74.48576117,1344
74.50272012,73
74.50272012,1202
74.51937580,95
74.51937580,1149
74.54440546,120
74.55234814,1099
74.55234814,144
74.56923342,1019
74.58485746,164
74.58599496,931
74.60504580,192
74.61504769,987
74.62504935,210
74.63304830,953
74.63860512,238
74.65389895,903
74.65516496,266
74.67254400,773
74.68508267,288
74.68939018,706
74.70394468,299
74.70394468,693
74.72403479,326
74.73521757,672
74.74321270,365
74.75489211,618
74.76345825,385
74.77450657,511
74.78024197,448
74.79503584,463
74.80472922,523
74.80851912,449
74.82246208,580
74.83514571,368
74.84514141,633
74.85480499,305
74.86279869,669
74.86993361,155
74.88503098,719
74.88751507,81
74.90313888,759
74.90418005,46
74.92109680,798
74.93512583,0
74.93727827,849
74.95513582,64
74.95513582,895
74.97051215,17
74.97051215,945
74.98712254,0
75.00293350,1018
75.00293350,0
75.01947021,1095
75.03488016,0
75.03621840,1156
75.05268288,0
75.05268288,1234
75.06933165,0
75.08487391,1287
75.08609796,0
75.10259199,1360
75.10259199,0
75.12208748,1389
75.13470054,0
75.14088750,1425
75.15438151,0
75.16238284,1494
75.17409110,0
75.18454242,1535
75.19006228,0
75.20234084,1645
75.21329021,0
75.22495246,1664
75.23458791,0
75.24258327,1749
75.25423360,0
75.25680661,1810
75.27299309,0
75.27916145,1835
75.29318833,0
75.30427337,1930
75.31175065,0
75.32293272,1974
75.33459759,0
75.34459448,2067
75.35419464,0
75.35753369,2096
75.37491417,0
75.38455868,2129
75.39455485,0
75.40314865,2161
75.40622020,0
75.42494035,2224
75.43494010,0
75.44294214,2288
75.45428419,0
75.45963502,2293
75.47487020,0
75.48287058,2290
75.49419904,0
75.50442600,2289
75.51172543,0
75.52296829,2304
75.52296829,0
75.54456973,2275
75.55442882,0
75.56242704,2294
75.57464743,0
75.58475924,2288
75.59504080,0
75.60232401,2291
75.61450124,0
75.62431097,2273
75.63249540,0
75.64224935,2281
75.65463066,0
75.66448689,2256
75.67425084,0
75.68270898,2276
75.69454336,0
75.70454192,2211
75.71454406,0
75.72208738,2199
75.73475718,0
75.74483991,2213
75.75475574,0
75.76226902,2227
75.77487803,0
75.78445578,2244
75.79486299,0
75.80286527,2235
75.81486320,0
75.82286429,2252
75.83486581,0
75.84286451,2192
75.85486579,0
75.86486697,2235
75.87486815,0
75.88286829,2223
75.89486957,0
75.90487146,2217
75.91487074,0
75.92287183,2213
75.93487334,0
75.94487333,2196
75.95487738,0
75.96287656,2222
75.97499943,0
75.98461533,2204
75.99466491,0
76.00266838,2219
76.01227260,0
76.02448225,2194
76.03433585,0
76.04245043,2205
76.05445170,0
76.06445289,2192
76.07445359,0
76.08245397,2193
76.09445500,0
76.10445571,2162
76.11245656,0
76.12445736,2188
76.13444924,0
76.14251566,2167
76.15451741,0
76.16451812,2162
76.17451811,0
76.18251991,2148
76.19478679,0
76.20278692,2171
76.21478701,0
76.22478747,2176
76.23479009,0
76.24279094,2151
76.25478983,0
76.26479292,2152
76.27479196,0
76.28279305,2144
76.29479384,0
76.30479479,2154
76.31405711,0
76.32205725,2160
76.33418632,0
76.34478593,2124
76.35440207,0
76.36284089,2151
76.37484121,0
76.38486552,2131
76.39233446,0
76.40276718,2135
76.41489768,0
76.42471814,2115
76.43457294,0
76.44272923,2116
76.45498157,0
76.46410823,2066
76.47442150,0
76.48242497,2007
76.49476647,0
76.50477004,2102
76.51477051,0
76.52277040,1989
76.53476977,0
76.54477024,2072
76.55476975,0
76.56277180,2055
76.57477212,0
76.58277297,2095
76.59477568,0
76.60277677,2027
76.61477590,0
76.62477684,2019
76.63477707,0
76.64277864,2053
76.65478134,0
76.66478062,1955
76.67478013,0
76.68277860,1857
76.69478035,0
76.70478129,1981
76.71478271,0
76.72278285,2000
76.73478675,0
76.74478555,2002
76.75478649,0
76.76278639,1982
76.77378845,0
76.78478885,1840
76.79479051,0
76.80279016,1881
76.81478906,0
76.82479143,1856
76.83479428,0
76.84279132,1832
76.85479307,0
76.86479449,1797
76.87279510,0
76.88479543,1773
76.89479494,0
76.90479708,1728
76.91279650,0
76.92479873,1725
76.93479919,0
76.94479918,1662
76.95479989,0
76.96280098,1646
76.97480059,0
76.98480272,1573
76.99480224,0
77.00280237,1563
77.01480317,0
77.02480698,1392
77.03480792,0
77.04280758,1463
77.05480814,9
77.06280756,1427
77.07480788,27
77.08281040,1381
77.09481001,42
77.10481095,1328
77.11481452,57
77.12281227,1305
77.13434553,75
77.14434624,1231
77.15434670,96
77.16234708,1201
77.17434859,111
77.18434978,1117
77.19434977,121
77.20235062,1062
77.21435070,139
77.22435117,1077
77.23435450,144
77.24235344,1072
77.25235438,174
77.26435566,1023
77.27435493,206
77.28235626,970
77.29435587,243
77.30435872,891
77.31435966,282
77.32236028,816
77.33436179,320
77.34436107,789
77.35436201,368
77.36236382,657
77.37436342,400
77.38436437,683
77.39436603,426
77.40236521,594
77.41436720,449
77.42436767,562
77.43436980,481
77.44236875,560
