Time (s),Red,IR
0.455,0,0
0.464,12411,17857
0.474,12606,18092
0.484,12762,18281
0.492,12935,18520
0.501,13120,18776
0.512,13300,19025
0.521,13511,19322
0.534,13783,19714
0.543,14155,20232
0.554,14599,20853
0.561,15206,21671
0.572,15845,22476
0.582,16370,23108
0.592,16754,23549
0.605,17013,23845
0.615,17221,24073
0.624,17403,24281
0.632,17533,24419
0.643,17626,24506
0.652,18101,24324
0.665,22064,27442
0.674,22641,27896
0.686,22742,27918
0.696,22698,27852
0.703,22715,27855
0.714,22716,27837
0.724,22710,27815
0.734,22728,27830
0.745,22780,27884
0.755,22865,27978
0.766,22977,28099
0.804,12935,18520
0.831,13511,19322
0.832,13511,19322
0.834,13511,19322
0.843,24859,29872
0.855,25134,30098
0.864,25379,30310
0.874,25592,30478
0.884,25751,30601
0.894,25870,30695
0.906,25967,30767
0.916,26054,30834
0.927,26130,30894
0.935,26198,30944
0.944,26239,30965
0.955,26272,30977
0.964,26293,30984
0.977,26329,31006
0.988,26372,31023
0.996,26415,31051
1.009,26452,31072
1.018,26496,31105
1.028,26533,31123
1.036,26578,31156
1.046,26616,31177
1.056,26653,31209
1.066,26682,31220
1.078,26717,31245
1.088,26747,31265
1.099,26781,31291
1.108,26806,31298
1.119,26834,31319
1.127,26851,31325
1.137,26880,31342
1.147,26913,31357
1.157,26939,31375
1.169,26958,31382
1.178,26979,31391
1.186,26999,31398
1.198,27014,31409
1.208,27025,31407
1.219,27037,31416
1.227,27052,31419
1.236,27060,31432
1.248,27073,31428
1.257,27078,31433
1.270,27084,31431
1.279,27094,31434
1.290,27112,31437
1.300,27127,31442
1.310,27144,31443
1.318,27158,31449
1.328,27174,31457
1.338,27191,31459
1.348,27194,31462
1.361,27208,31462
1.370,27205,31466
1.381,27199,31450
1.391,27169,31428
1.401,27127,31388
1.409,27063,31356
1.418,27009,31315
1.428,26941,31275
1.438,26895,31244
1.450,26842,31219
1.461,26808,31198
1.469,26776,31183
1.481,26757,31174
1.492,26737,31168
1.501,26732,31162
1.509,26729,31156
1.519,26726,31151
1.530,26732,31154
1.542,26739,31153
1.552,26744,31155
1.561,26759,31162
1.572,26783,31170
1.581,26800,31178
1.592,26820,31188
1.599,26841,31192
1.609,26869,31208
1.619,26892,31221
1.629,26923,31237
1.642,26944,31245
1.652,26967,31260
1.663,26980,31260
1.673,26995,31259
1.683,27004,31256
1.691,27013,31260
1.701,27022,31255
1.711,27026,31256
1.721,27030,31250
1.733,27046,31259
1.743,27055,31256
1.750,27068,31265
1.761,27081,31265
1.771,27102,31280
1.781,27118,31285
1.793,27145,31303
1.804,27175,31311
1.814,27208,31339
1.821,27236,31349
1.831,27270,31372
1.841,27301,31388
1.851,27340,31414
1.863,27365,31425
1.873,27405,31452
1.884,27425,31464
1.891,27453,31478
1.901,27466,31485
1.911,27494,31501
1.921,27508,31508
1.934,27538,31525
1.944,27550,31533
1.954,27574,31545
1.962,27583,31552
1.972,27608,31567
1.982,27625,31577
1.992,27642,31580
2.004,27653,31589
2.015,27668,31602
2.026,27676,31600
2.032,27684,31605
2.042,27686,31602
2.052,27697,31612
2.063,27703,31614
2.075,27714,31624
2.085,27723,31618
2.096,27730,31627
2.103,27736,31624
2.113,27745,31627
2.124,27742,31627
2.133,27740,31631
2.146,27734,31610
2.155,27709,31598
2.166,27664,31564
2.176,27608,31523
2.187,27532,31478
2.196,27470,31439
2.203,27405,31402
2.215,27351,31371
2.223,27287,31333
2.237,27246,31310
2.247,27199,31278
2.257,27176,31263
2.267,27146,31239
2.277,27137,31237
2.285,27122,31222
2.295,27123,31213
2.304,27112,31203
2.315,27121,31199
2.328,27118,31187
2.337,27128,31182
2.345,27133,31175
2.354,27140,31175
2.365,27138,31159
2.376,27149,31159
2.386,27152,31148
2.397,27164,31142
2.407,27162,31126
2.418,27162,31119
2.425,27151,31093
2.435,27144,31082
2.445,27128,31061
2.455,27116,31046
2.467,27096,31021
2.477,27083,31011
2.487,27063,30986
2.496,27051,30976
2.506,27030,30956
2.516,27022,30947
2.528,27003,30932
2.538,27005,30929
2.548,26991,30917
2.558,26992,30914
2.568,26971,30899
2.578,26976,30900
2.586,26952,30886
2.596,26957,30880
2.607,26934,30866
2.616,26931,30861
2.629,26909,30842
2.640,26916,30839
2.647,26900,30829
2.659,26897,30824
2.671,26884,30810
2.677,26881,30804
2.688,26861,30785
2.697,26851,30768
2.707,26831,30743
2.720,26809,30714
2.730,26773,30693
2.738,26755,30661
2.747,26717,30642
2.757,26691,30620
2.768,26647,30602
2.781,26629,30597
2.791,26603,30588
2.800,26589,30577
2.812,26566,30568
2.819,26554,30547
2.823,26525,30523
2.839,26511,30501
2.848,26491,30500
2.861,26483,30481
2.870,26471,30474
2.880,26467,30464
2.888,26462,30460
2.896,26458,30454
2.896,26451,30446
2.913,26442,30435
2.928,26438,30436
2.928,26417,30407
2.943,26389,30392
2.959,26345,30359
2.959,26306,30336
2.975,26254,30299
2.975,26217,30281
2.990,26177,30258
3.006,26157,30253
3.022,26136,30239
3.022,26132,30244
3.037,26128,30240
3.037,26146,30257
3.053,26147,30256
3.069,26169,30276
3.069,26177,30285
3.084,26206,30309
3.100,26212,30313
3.110,26238,30343
3.116,26251,30349
3.125,26275,30381
3.141,26294,30396
3.148,26317,30426
3.158,26338,30442
3.165,26362,30466
3.180,26381,30478
3.191,26396,30507
3.201,26409,30511
3.210,26418,30530
3.223,26420,30536
3.228,26428,30552
3.244,26430,30553
3.244,26436,30570
3.261,26432,30579
3.261,26440,30590
3.278,26436,30593
3.289,26446,30604
3.304,26442,30606
3.314,26459,30625
3.324,26458,30629
3.332,26477,30643
3.342,26481,30647
3.352,26497,30656
3.356,26504,30662
3.372,26522,30679
3.380,26529,30687
3.393,26553,30698
3.404,26558,30702
3.412,26572,30716
3.425,26579,30717
3.428,26595,30728
3.442,26599,30731
3.452,26612,30739
3.461,26614,30738
3.475,26629,30749
3.484,26623,30744
3.492,26631,30747
3.500,26637,30752
3.509,26648,30757
3.523,26651,30752
3.532,26657,30763
3.542,26654,30759
3.556,26660,30761
3.566,26657,30760
3.574,26667,30762
3.582,26664,30764
3.589,26675,30764
3.598,26675,30764
3.616,26680,30768
3.623,26682,30764
3.623,26688,30772
3.641,26691,30771
3.649,26698,30773
3.657,26697,30772
3.673,26706,30777
3.684,26711,30777
3.692,26717,30782
3.707,26717,30782
3.708,26723,30783
3.722,26713,30776
3.734,26701,30767
3.746,26668,30747
3.756,26620,30718
3.767,26565,30681
3.767,26506,30653
3.782,26450,30619
3.782,26397,30592
3.798,26348,30565
3.814,26311,30548
3.814,26277,30527
3.829,26257,30521
3.846,26242,30508
3.856,26234,30507
3.856,26232,30501
3.873,26237,30503
3.881,26243,30502
3.897,26248,30508
3.905,26257,30511
3.905,26264,30518
3.924,26273,30519
3.932,26287,30530
3.947,26293,30527
3.955,26307,30538
3.955,26318,30542
3.971,26330,30542
3.987,26333,30542
3.987,26335,30542
4.002,26321,30534
4.014,26322,30535
4.022,26311,30528
4.039,26309,30520
4.039,26297,30516
4.054,26296,30512
4.054,26282,30511
4.070,26278,30507
4.085,26271,30503
4.085,26273,30501
4.101,26266,30497
4.117,26270,30496
4.117,26265,30499
4.135,26278,30497
4.147,26271,30504
4.155,26284,30501
4.155,26282,30505
4.171,26296,30507
4.188,26295,30512
4.188,26305,30509
4.205,26310,30510
4.213,26317,30519
4.222,26325,30522
4.237,26333,30525
4.237,26342,30529
4.260,26345,30529
4.271,26347,30534
4.278,26355,30531
4.289,26364,30536
4.293,26365,30537
4.310,26373,30544
4.318,26375,30542
4.331,26389,30546
4.338,26389,30541
4.347,26396,30549
4.356,26398,30548
4.356,26403,30550
4.380,26408,30552
4.388,26411,30556
4.396,26412,30556
4.405,26419,30557
4.413,26421,30561
4.429,26429,30562
4.429,26430,30562
4.445,26441,30567
4.461,26439,30568
4.461,26450,30573
4.476,26452,30571
4.476,26467,30579
4.492,26466,30571
4.508,26475,30584
4.508,26478,30580
4.523,26483,30583
4.539,26472,30574
4.539,26462,30567
4.554,26426,30544
4.570,26384,30518
4.570,26325,30484
4.586,26273,30455
4.601,26217,30419
4.601,26169,30395
4.617,26126,30372
4.617,26099,30357
4.633,26070,30342
4.648,26064,30339
4.648,26054,30336
4.664,26058,30341
4.680,26057,30337
4.694,26067,30343
4.694,26069,30346
4.706,26081,30354
4.722,26090,30355
4.732,26102,30362
4.741,26108,30367
4.749,26123,30373
4.765,26133,30379
4.773,26149,30384
4.782,26157,30390
4.788,26161,30392
4.796,26162,30383
4.805,26163,30385
4.823,26157,30383
4.823,26154,30382
4.840,26145,30375
4.849,26141,30371
4.863,26136,30365
4.872,26129,30366
4.880,26124,30361
4.888,26117,30361
4.903,26119,30354
4.909,26116,30357
4.923,26123,30357
4.931,26130,30364
4.940,26132,30365
4.956,26138,30371
4.961,26146,30371
4.974,26154,30374
4.982,26161,30378
4.994,26175,30386
5.002,26178,30389
5.014,26188,30392
5.021,26193,30393
5.021,26212,30402
5.040,26212,30402
5.055,26224,30409
5.064,26223,30411
5.071,26234,30414
5.084,26236,30416
5.088,26246,30415
5.104,26248,30423
5.117,26263,30425
5.126,26260,30424
5.132,26275,30430
5.138,26275,30430
5.154,26285,30433
5.154,26288,30433
5.170,26303,30439
5.185,26300,30441
5.198,26314,30444
5.204,26310,30442
5.212,26320,30450
5.221,26325,30452
5.221,26337,30459
5.241,26337,30458
5.254,26346,30460
5.262,26346,30464
5.271,26355,30466
5.286,26354,30462
5.286,26365,30473
5.303,26373,30474
5.303,26385,30481
5.319,26387,30480
5.335,26399,30485
5.335,26399,30481
5.357,26410,30491
5.358,26410,30492
5.371,26421,30494
5.380,26399,30480
5.396,26371,30464
5.404,26324,30433
5.420,26269,30403
5.420,26210,30366
5.436,26152,30336
5.436,26089,30299
5.451,26044,30277
5.466,26008,30254
5.466,25981,30249
5.482,25961,30235
5.498,25954,30233
5.508,25947,30231
5.518,25949,30233
5.528,25951,30237
5.537,25958,30237
5.537,25967,30239
5.553,25976,30247
5.553,25985,30250
5.574,25996,30256
5.574,26011,30263
5.590,26025,30270
5.607,26044,30283
5.621,26052,30288
5.629,26063,30292
5.637,26076,30295
5.637,26079,30302
5.654,26081,30297
5.654,26079,30299
5.669,26076,30293
5.687,26067,30290
5.702,26063,30286
5.708,26055,30284
5.716,26052,30278
5.724,26047,30274
5.740,26039,30273
5.748,26039,30276
5.756,26040,30275
5.772,26044,30275
5.774,26047,30280
5.790,26055,30284
5.796,26060,30285
5.806,26064,30291
5.821,26075,30292
5.828,26087,30300
5.840,26090,30305
5.843,26101,30308
5.860,26110,30315
5.870,26121,30323
5.878,26131,30320
5.886,26143,30329
5.902,26148,30330
5.908,26155,30339
5.921,26155,30334
5.931,26167,30348
5.940,26173,30343
5.947,26176,30349
5.956,26183,30348
5.973,26193,30358
5.980,26197,30355
5.990,26207,30362
5.995,26209,30359
6.012,26216,30370
6.023,26218,30368
6.028,26225,30371
6.044,26229,30371
6.054,26240,30382
6.059,26240,30381
6.071,26250,30386
6.076,26246,30386
6.091,26258,30388
6.104,26256,30389
6.112,26265,30393
6.122,26260,30392
6.132,26275,30396
6.139,26271,30391
6.148,26283,30406
6.156,26280,30403
6.174,26296,30411
6.180,26292,30415
6.189,26306,30417
6.196,26311,30418
6.212,26323,30430
6.222,26319,30427
6.229,26335,30430
6.244,26334,30428
6.255,26343,30432
6.260,26329,30427
6.271,26311,30411
6.283,26263,30383
6.290,26220,30356
6.290,26156,30316
6.312,26097,30283
6.320,26026,30247
6.337,25976,30222
6.343,25926,30191
6.353,25894,30178
6.361,25862,30163
6.371,25846,30157
6.377,25837,30155
6.391,25840,30158
6.403,25842,30154
6.411,25852,30163
6.420,25859,30165
6.436,25873,30179
6.440,25884,30179
6.457,25901,30191
6.457,25909,30196
6.474,25923,30204
6.484,25937,30213
6.494,25957,30224
6.506,25966,30227
6.506,25986,30239
6.521,25997,30240
6.521,26003,30245
6.538,26002,30244
6.554,26001,30246
6.554,25998,30239
6.573,25991,30237
6.586,25983,30232
6.590,25979,30232
6.603,25975,30228
6.608,25970,30229
6.622,25969,30223
6.622,25966,30222
6.639,25964,30223
6.653,25972,30229
6.657,25975,30225
6.672,25984,30237
6.687,25988,30237
6.691,25998,30245
6.703,26004,30249
6.707,26017,30253
6.723,26024,30256
6.736,26031,30263
6.748,26040,30264
6.759,26049,30271
6.766,26053,30270
6.775,26061,30282
6.786,26064,30277
6.790,26075,30284
6.806,26076,30287
6.806,26094,30290
6.821,26093,30297
6.838,26109,30300
6.846,26106,30303
6.858,26119,30306
6.867,26119,30309
6.879,26134,30318
6.890,26130,30319
6.899,26146,30323
6.907,26144,30321
6.917,26153,30324
6.927,26156,30329
6.938,26169,30332
6.949,26168,30334
6.959,26174,30334
6.970,26180,30337
6.977,26190,30346
6.988,26195,30347
6.997,26198,30351
7.008,26203,30353
7.020,26212,30356
7.030,26212,30359
7.041,26221,30359
7.049,26232,30367
7.059,26242,30373
7.069,26249,30379
7.079,26258,30384
7.091,26276,30391
7.101,26279,30395
7.109,26292,30401
7.120,26304,30409
7.132,26320,30416
7.138,26325,30419
7.149,26337,30426
7.159,26346,30428
7.170,26348,30428
7.181,26330,30419
7.191,26304,30398
7.199,26252,30369
7.211,26200,30333
7.221,26134,30301
7.232,26073,30268
7.239,26016,30232
7.249,25968,30211
7.259,25921,30186
7.271,25895,30172
7.282,25872,30163
7.292,25863,30159
7.301,25859,30159
7.312,25867,30165
7.323,25877,30170
7.331,25891,30179
7.341,25901,30186
7.350,25918,30195
7.361,25929,30203
7.373,25942,30215
7.384,25959,30218
7.391,25975,30229
7.404,25988,30233
7.413,26011,30251
7.422,26029,30256
7.431,26041,30266
7.442,26050,30265
7.454,26054,30274
7.463,26056,30268
7.474,26053,30271
7.482,26047,30261
7.491,26042,30261
7.501,26033,30253
7.513,26032,30255
7.523,26025,30249
7.533,26024,30253
7.544,26023,30249
7.553,26025,30254
7.565,26023,30250
7.571,26034,30259
7.582,26035,30258
7.593,26051,30268
7.603,26054,30270
7.614,26068,30281
7.625,26076,30281
7.635,26087,30286
7.642,26095,30292
7.652,26109,30300
7.662,26114,30304
7.672,26131,30310
7.684,26138,30319
7.694,26152,30320
7.705,26157,30327
7.712,26168,30333
7.723,26175,30335
7.734,26187,30344
7.743,26195,30345
7.755,26208,30354
7.765,26218,30354
7.776,26226,30367
7.783,26229,30363
7.793,26247,30374
7.803,26252,30374
7.814,26260,30380
7.825,26263,30380
7.837,26273,30388
7.846,26282,30390
7.855,26288,30396
7.865,26294,30398
7.875,26302,30406
7.886,26306,30399
7.896,26317,30412
7.906,26321,30412
7.916,26333,30415
7.926,26332,30420
7.936,26347,30424
7.944,26352,30426
7.954,26361,30433
7.964,26362,30438
7.975,26371,30440
7.987,26373,30443
7.997,26388,30449
8.005,26392,30448
8.018,26404,30461
8.028,26410,30464
8.036,26421,30464
8.045,26425,30469
8.055,26436,30472
8.065,26427,30468
8.078,26415,30457
8.088,26378,30433
8.095,26336,30406
8.108,26269,30369
8.117,26211,30339
8.130,26144,30300
8.136,26096,30273
8.146,26045,30241
8.156,26010,30225
8.166,25976,30209
8.178,25961,30205
8.187,25952,30203
8.199,25952,30202
8.206,25955,30204
8.216,25960,30212
8.226,25974,30221
8.236,25987,30228
8.250,26002,30232
8.259,26017,30244
8.269,26033,30249
8.276,26050,30263
8.287,26061,30269
8.297,26087,30283
8.307,26105,30290
8.319,26119,30301
8.329,26127,30305
8.339,26137,30310
8.347,26137,30303
8.357,26138,30309
8.367,26134,30305
8.378,26133,30303
8.389,26126,30299
8.399,26120,30300
8.408,26115,30293
8.419,26112,30291
8.430,26111,30292
8.439,26109,30292
8.448,26102,30287
8.458,26106,30292
8.468,26110,30296
8.481,26120,30296
8.491,26127,30300
8.501,26136,30310
8.511,26140,30310
8.522,26151,30317
8.531,26158,30323
8.540,26174,30331
8.549,26176,30337
8.560,26185,30333
8.571,26191,30336
8.582,26199,30338
8.592,26203,30343
8.599,26215,30347
8.611,26217,30353
8.621,26221,30353
8.632,26230,30362
8.639,26236,30360
8.650,26239,30365
8.659,26248,30367
8.670,26253,30370
8.682,26258,30373
8.690,26262,30377
8.703,26264,30376
8.711,26269,30378
8.723,26275,30383
8.730,26278,30385
8.740,26284,30384
8.751,26286,30388
8.760,26286,30388
8.773,26292,30389
8.782,26300,30392
8.790,26305,30396
8.803,26311,30401
8.812,26318,30404
8.820,26324,30411
8.830,26333,30412
8.839,26338,30414
8.847,26340,30418
8.863,26344,30417
8.874,26347,30425
8.878,26352,30423
8.889,26367,30432
8.901,26374,30434
8.905,26385,30444
8.921,26395,30449
8.921,26408,30458
8.936,26418,30460
8.953,26430,30469
8.953,26433,30465
8.969,26428,30466
8.969,26409,30447
8.984,26376,30422
9.000,26320,30387
9.000,26261,30358
9.016,26192,30316
9.034,26137,30290
9.044,26077,30252
9.052,26033,30231
9.052,25987,30210
9.068,25968,30198
9.068,25942,30188
9.083,25938,30191
9.101,25934,30189
9.115,25949,30195
9.119,25949,30197
9.127,25967,30209
9.144,25976,30211
9.154,25999,30228
9.165,26009,30233
9.176,26032,30249
9.185,26040,30255
9.193,26071,30263
9.201,26083,30280
9.211,26113,30289
9.220,26121,30298
9.234,26141,30300
9.234,26147,30305
9.250,26155,30314
9.250,26153,30313
9.265,26158,30312
9.284,26155,30307
9.296,26150,30307
9.303,26141,30297
9.316,26135,30301
9.326,26130,30294
9.335,26127,30296
9.342,26125,30291
9.352,26122,30293
9.366,26126,30293
9.376,26128,30295
9.388,26137,30297
9.397,26146,30302
9.402,26154,30305
9.413,26165,30320
9.422,26177,30321
9.438,26190,30328
9.439,26195,30334
9.451,26216,30340
9.467,26224,30344
9.467,26236,30354
9.482,26245,30357
9.482,26256,30367
9.502,26264,30370
9.517,26274,30378
9.519,26280,30378
9.536,26294,30387
9.536,26298,30391
9.552,26308,30397
9.559,26320,30400
9.575,26325,30406
9.575,26333,30406
9.590,26342,30408
9.606,26348,30413
9.606,26349,30413
9.622,26357,30415
9.622,26360,30424
9.637,26368,30425
9.653,26369,30423
9.669,26378,30426
9.669,26380,30427
9.684,26382,30428
9.684,26387,30436
9.700,26390,30431
9.715,26396,30440
9.715,26402,30439
9.731,26406,30449
9.747,26409,30442
9.747,26411,30444
9.762,26415,30448
9.762,26419,30453
9.778,26425,30449
9.794,26436,30457
9.809,26440,30456
9.809,26454,30465
9.825,26456,30468
9.825,26470,30476
9.840,26472,30481
9.853,26490,30484
9.867,26486,30489
9.880,26496,30488
9.885,26486,30482
9.885,26466,30470
9.901,26426,30440
9.917,26377,30411
9.917,26304,30370
9.932,26243,30336
9.948,26176,30299
9.948,26117,30266
9.969,26059,30238
9.969,26021,30219
9.986,25987,30199
10.002,25970,30191
10.002,25952,30180
10.020,25951,30185
10.030,25950,30187
10.034,25962,30192
10.034,25972,30200
10.050,25990,30212
10.066,26000,30217
10.081,26021,30225
10.081,26031,30236
10.097,26049,30244
10.097,26069,30259
10.117,26090,30266
10.117,26110,30273
10.132,26125,30284
10.148,26138,30291
10.148,26145,30295
10.164,26147,30300
10.179,26147,30294
10.179,26140,30293
10.195,26136,30289
10.213,26131,30286
10.222,26131,30286
10.231,26127,30282
10.242,26124,30276
10.247,26127,30281
10.247,26126,30276
10.263,26132,30282
10.279,26137,30288
10.279,26154,30295
10.294,26163,30301
10.310,26184,30312
10.310,26194,30322
10.326,26217,30334
10.341,26233,30345
10.341,26253,30351
10.357,26270,30358
10.369,26293,30372
10.385,26299,30377
10.385,26323,30391
10.402,26338,30396
10.402,26360,30410
10.417,26377,30416
10.433,26399,30432
10.433,26417,30440
10.449,26434,30451
10.464,26445,30456
10.464,26464,30470
10.480,26479,30475
10.480,26490,30484
10.495,26498,30485
10.511,26509,30493
10.511,26519,30496
10.527,26536,30508
10.542,26547,30514
10.542,26562,30521
10.564,26571,30521
10.572,26583,30530
10.586,26596,30534
10.595,26606,30541
10.595,26606,30545
10.610,26624,30552
10.610,26625,30554
10.634,26642,30565
10.635,26646,30561
10.651,26661,30575
10.651,26666,30573
10.668,26681,30584
10.683,26681,30587
10.690,26702,30595
10.701,26703,30596
10.708,26726,30603
10.724,26733,30611
10.733,26751,30621
10.741,26765,30633
10.749,26786,30642
10.765,26795,30650
10.765,26812,30655
10.780,26818,30662
10.780,26828,30663
10.796,26811,30649
10.812,26783,30633
10.828,26725,30594
10.838,26663,30562
10.846,26590,30518
10.856,26526,30481
10.866,26468,30447
10.875,26423,30426
10.887,26386,30401
10.897,26360,30392
10.908,26335,30380
10.916,26328,30376
10.925,26320,30372
10.935,26328,30380
10.946,26326,30383
10.957,26350,30391
10.968,26362,30399
10.977,26375,30413
10.989,26389,30417
10.999,26407,30430
11.006,26421,30435
11.017,26441,30448
11.026,26454,30459
11.036,26483,30470
11.048,26495,30478
11.058,26509,30483
11.067,26514,30486
11.079,26516,30488
11.089,26514,30480
11.100,26510,30480
11.107,26499,30472
11.118,26496,30474
11.127,26480,30465
11.137,26471,30456
11.150,26465,30452
11.160,26466,30453
11.169,26460,30448
11.180,26463,30452
11.190,26460,30452
11.197,26467,30454
11.208,26467,30454
11.218,26481,30463
11.228,26484,30466
11.241,26500,30476
11.250,26499,30470
11.259,26510,30479
11.271,26515,30484
11.281,26526,30494
11.291,26529,30490
11.298,26541,30500
11.308,26546,30500
11.318,26555,30503
11.329,26563,30507
11.341,26570,30514
11.351,26576,30512
11.361,26585,30520
11.371,26586,30519
11.381,26601,30525
11.389,26597,30526
11.400,26610,30531
11.408,26613,30536
11.421,26623,30539
11.431,26624,30538
11.441,26637,30543
11.450,26639,30545
11.462,26646,30548
11.472,26647,30549
11.482,26654,30546
11.490,26658,30553
11.501,26661,30556
11.511,26663,30555
11.520,26668,30557
11.533,26671,30563
11.543,26679,30567
11.552,26684,30572
11.563,26693,30573
11.573,26700,30577
11.581,26706,30580
11.591,26718,30586
11.601,26729,30599
11.611,26744,30602
11.623,26757,30610
11.632,26766,30618
11.640,26775,30616
11.652,26779,30620
11.662,26780,30617
11.674,26764,30604
11.680,26727,30580
11.692,26673,30552
11.702,26610,30509
11.712,26539,30469
11.724,26476,30433
11.734,26421,30403
11.744,26368,30378
11.753,26334,30363
11.764,26309,30347
11.772,26297,30341
11.782,26284,30340
11.792,26287,30338
11.805,26290,30339
11.815,26297,30348
11.824,26303,30353
11.833,26317,30360
11.845,26328,30366
11.855,26339,30377
11.866,26354,30382
11.873,26369,30394
11.882,26388,30403
11.892,26414,30414
11.902,26436,30423
11.915,26453,30435
11.925,26468,30444
11.935,26478,30450
11.946,26480,30452
11.955,26478,30445
11.963,26477,30442
11.973,26471,30437
11.984,26465,30439
11.996,26461,30432
12.006,26453,30430
12.016,26451,30428
12.025,26442,30424
12.035,26443,30425
12.046,26444,30422
12.054,26447,30426
12.064,26453,30429
12.074,26461,30437
12.084,26474,30437
12.096,26484,30449
12.107,26494,30451
12.113,26503,30460
12.126,26515,30465
12.137,26528,30475
12.147,26537,30476
12.154,26549,30486
12.165,26557,30489
12.174,26571,30498
12.184,26578,30495
12.197,26591,30503
12.205,26595,30507
12.217,26607,30514
12.226,26609,30516
12.237,26622,30524
12.244,26626,30525
12.255,26641,30528
12.265,26641,30531
12.275,26656,30540
12.287,26653,30540
12.297,26668,30543
12.307,26666,30543
12.318,26679,30548
12.328,26677,30551
12.336,26686,30551
12.345,26680,30555
12.356,26693,30557
12.366,26689,30555
12.379,26700,30559
12.388,26696,30559
12.399,26706,30567
12.409,26705,30564
12.419,26722,30573
12.427,26715,30573
12.437,26729,30578
12.447,26730,30577
12.457,26741,30585
12.469,26742,30590
12.479,26757,30593
12.488,26762,30597
12.497,26773,30603
12.507,26784,30607
12.518,26797,30618
12.529,26798,30614
12.540,26798,30610
12.549,26769,30589
12.558,26725,30562
12.568,26661,30522
12.578,26597,30486
12.587,26523,30448
12.599,26462,30416
12.609,26403,30381
12.620,26364,30356
12.628,26324,30337
12.637,26305,30323
12.648,26283,30317
12.657,26279,30319
12.671,26279,30317
12.681,26281,30323
12.692,26292,30326
12.698,26301,30331
12.709,26312,30341
12.718,26329,30347
12.728,26342,30348
12.740,26352,30359
12.750,26365,30367
12.762,26378,30373
12.769,26398,30381
12.778,26421,30399
12.789,26439,30404
12.798,26456,30416
12.812,26459,30415
12.821,26465,30420
12.832,26463,30413
12.840,26460,30414
12.850,26457,30406
12.859,26447,30411
12.869,26440,30398
12.881,26436,30400
12.891,26428,30395
12.899,26421,30393
12.911,26424,30388
12.923,26423,30390
12.929,26426,30391
12.940,26427,30395
12.950,26435,30398
12.959,26447,30404
12.972,26448,30410
12.982,26464,30415
12.990,26467,30417
13.002,26479,30425
13.012,26482,30425
13.023,26499,30434
13.030,26504,30442
13.041,26519,30445
13.050,26521,30447
13.064,26535,30451
13.072,26535,30452
13.082,26544,30457
13.094,26549,30459
13.104,26561,30466
13.114,26565,30472
13.121,26577,30469
13.132,26579,30480
13.142,26589,30484
13.152,26590,30486
13.163,26605,30491
13.173,26602,30490
13.183,26611,30491
13.193,26613,30494
13.204,26625,30494
13.211,26624,30499
13.222,26634,30503
13.231,26633,30504
13.242,26639,30504
13.254,26643,30510
13.264,26654,30514
13.272,26653,30517
13.284,26661,30517
13.295,26665,30522
13.303,26674,30525
13.313,26677,30527
13.325,26690,30531
13.335,26697,30536
13.345,26709,30543
13.353,26718,30544
13.364,26727,30551
13.373,26736,30561
13.387,26742,30565
13.395,26747,30562
13.406,26736,30556
13.413,26716,30539
13.423,26666,30509
13.434,26608,30475
13.443,26536,30431
13.454,26468,30393
13.466,26398,30353
13.478,26343,30324
13.483,26287,30293
13.494,26255,30271
13.503,26224,30260
13.514,26211,30254
13.527,26202,30253
13.536,26209,30257
13.547,26208,30254
13.554,26214,30262
13.564,26221,30264
13.574,26236,30275
13.584,26240,30280
13.596,26259,30289
13.606,26267,30288
13.617,26288,30304
13.624,26305,30310
13.635,26326,30328
13.644,26342,30327
13.657,26362,30344
13.666,26372,30347
13.675,26383,30352
13.687,26384,30352
13.697,26383,30352
13.708,26378,30346
13.715,26378,30346
13.726,26367,30339
13.736,26373,30343
13.747,26367,30337
13.758,26367,30344
13.769,26367,30338
13.778,26371,30344
13.789,26375,30347
13.799,26387,30353
13.807,26397,30358
13.816,26411,30367
13.826,26424,30374
13.837,26442,30386
13.849,26456,30393
13.858,26476,30403
13.866,26484,30408
13.878,26500,30418
13.888,26511,30419
13.896,26528,30432
13.908,26538,30437
13.917,26553,30441
13.930,26559,30443
13.940,26572,30453
13.950,26585,30461
13.957,26599,30470
13.968,26612,30475
13.978,26625,30480
13.988,26634,30484
14.000,26648,30498
14.010,26653,30492
14.021,26661,30502
14.028,26669,30507
14.038,26679,30513
14.048,26687,30511
14.058,26697,30518
14.071,26701,30521
14.081,26712,30528
14.091,26720,30529
14.099,26729,30538
14.109,26737,30540
14.119,26750,30547
14.129,26759,30552
14.140,26770,30559
14.150,26775,30565
14.162,26793,30573
14.168,26802,30576
14.179,26821,30586
14.188,26830,30593
14.200,26849,30599
14.212,26856,30607
14.222,26879,30615
14.233,26883,30618
14.240,26898,30625
14.250,26894,30621
14.259,26887,30619
14.269,26850,30590
14.282,26794,30554
14.291,26722,30513
14.303,26656,30476
14.309,26576,30435
14.320,26519,30398
14.330,26464,30372
14.341,26431,30352
14.352,26398,30332
14.363,26380,30327
14.373,26370,30326
14.382,26372,30324
14.392,26371,30326
14.400,26385,30333
14.410,26389,30338
14.420,26407,30344
14.430,26412,30352
14.442,26427,30359
14.452,26434,30366
14.461,26450,30378
14.472,26468,30381
14.484,26490,30394
14.492,26506,30404
14.503,26528,30413
14.513,26538,30417
14.524,26553,30425
14.531,26550,30423
14.541,26551,30425
14.551,26544,30414
14.561,26542,30416
14.573,26530,30408
14.583,26529,30403
14.593,26518,30398
14.601,26520,30403
14.611,26513,30397
14.622,26512,30398
14.631,26514,30401
14.645,26526,30407
14.655,26523,30405
14.665,26536,30416
14.672,26543,30419
14.682,26557,30422
14.692,26568,30428
14.703,26587,30439
14.714,26592,30447
14.725,26607,30451
14.736,26619,30461
14.742,26634,30465
14.753,26647,30475
14.764,26661,30481
14.772,26672,30491
14.786,26686,30498
14.795,26693,30503
14.806,26711,30508
14.814,26716,30515
14.824,26727,30521
14.833,26736,30525
14.843,26749,30529
14.856,26754,30533
14.866,26763,30538
14.877,26776,30540
14.885,26784,30547
14.897,26792,30552
14.903,26800,30557
14.914,26810,30559
14.924,26814,30559
14.934,26822,30564
14.946,26824,30570
14.956,26842,30574
14.964,26847,30576
14.977,26853,30585
14.986,26859,30588
14.998,26872,30590
15.005,26877,30594
15.015,26884,30595
15.024,26895,30603
15.035,26907,30608
15.048,26914,30617
15.057,26933,30625
15.068,26940,30632
15.078,26961,30643
15.088,26970,30647
15.096,26978,30653
15.106,26974,30643
15.116,26958,30630
15.126,26902,30595
15.138,26833,30553
15.148,26754,30510
15.155,26684,30467
15.169,26616,30430
15.178,26557,30394
15.187,26507,30368
15.196,26469,30349
15.206,26443,30335
15.219,26427,30331
15.228,26415,30325
15.238,26414,30327
15.248,26421,30326
15.256,26422,30334
15.266,26434,30333
15.276,26439,30340
15.290,26447,30343
15.299,26453,30348
15.311,26467,30348
15.316,26472,30356
15.327,26481,30359
15.337,26494,30369
15.347,26508,30371
15.359,26519,30383
15.370,26526,30381
15.379,26531,30386
15.387,26528,30381
15.397,26527,30382
15.407,26521,30374
15.418,26525,30375
15.430,26517,30369
15.440,26517,30367
15.450,26508,30364
15.459,26515,30365
15.468,26509,30366
15.479,26517,30367
15.490,26518,30370
15.501,26532,30374
15.511,26533,30375
15.521,26551,30386
15.529,26560,30390
15.538,26577,30401
15.548,26588,30406
15.558,26603,30417
15.570,26616,30422
15.581,26633,30432
15.590,26639,30433
15.599,26652,30441
15.610,26655,30445
15.619,26672,30454
15.632,26678,30451
15.641,26695,30464
15.651,26696,30466
15.662,26706,30467
15.671,26710,30470
15.683,26717,30477
15.689,26723,30479
15.699,26730,30484
15.709,26735,30482
15.719,26738,30489
15.732,26748,30492
15.742,26750,30494
15.750,26750,30493
15.762,26756,30499
15.772,26758,30497
15.784,26761,30500
15.791,26766,30502
15.801,26770,30505
15.811,26774,30505
15.821,26779,30507
15.833,26780,30507
15.843,26788,30512
15.854,26792,30513
15.863,26799,30517
15.874,26802,30517
15.881,26809,30520
15.892,26817,30527
15.902,26827,30530
15.912,26837,30536
15.924,26847,30544
15.934,26858,30546
15.942,26871,30555
15.954,26874,30562
15.964,26886,30564
15.974,26881,30566
15.982,26876,30558
15.992,26843,30533
16.002,26791,30500
16.012,26720,30456
16.025,26652,30418
16.034,26575,30376
16.044,26518,30343
16.054,26459,30311
16.065,26417,30288
16.072,26383,30267
16.082,26362,30261
16.092,26349,30249
16.102,26349,30255
16.114,26343,30248
16.125,26351,30259
16.132,26359,30260
16.146,26372,30267
16.155,26382,30271
16.164,26398,30276
16.173,26402,30285
16.183,26419,30287
16.193,26426,30296
16.205,26447,30310
16.215,26463,30318
16.223,26481,30329
16.235,26498,30338
16.246,26510,30340
16.257,26509,30341
16.265,26514,30341
16.275,26508,30338
16.284,26506,30338
16.297,26499,30333
16.306,26496,30327
16.317,26488,30324
16.327,26489,30324
16.337,26486,30322
16.347,26488,30322
16.355,26493,30323
16.365,26500,30331
16.375,26508,30337
16.385,26521,30344
16.398,26532,30350
16.407,26550,30358
16.416,26562,30363
16.426,26574,30369
16.437,26585,30379
16.448,26601,30384
16.454,26611,30397
16.466,26629,30399
16.476,26639,30412
16.485,26657,30418
16.498,26665,30422
16.507,26678,30431
16.518,26687,30437
16.528,26697,30436
16.538,26705,30446
16.546,26718,30447
16.555,26719,30451
16.566,26736,30458
16.575,26736,30461
16.588,26742,30462
16.598,26749,30466
16.606,26757,30469
16.618,26764,30470
16.629,26764,30468
16.636,26769,30474
16.646,26769,30473
16.656,26773,30478
16.666,26779,30479
16.679,26785,30480
16.690,26787,30482
16.697,26794,30489
16.707,26797,30487
16.717,26806,30489
16.726,26807,30493
16.739,26817,30502
16.749,26821,30503
16.759,26836,30509
16.771,26835,30509
16.778,26847,30517
16.787,26855,30524
16.797,26866,30527
16.808,26873,30529
16.820,26888,30539
16.828,26888,30534
16.836,26888,30531
16.844,26859,30512
16.853,26817,30486
16.863,26749,30443
16.878,26680,30405
16.878,26617,30368
16.894,26561,30334
16.910,26507,30302
16.910,26471,30283
16.925,26437,30266
16.925,26423,30262
16.941,26410,30253
16.956,26415,30257
16.956,26415,30252
16.979,26426,30270
16.979,26434,30269
16.996,26451,30281
17.009,26456,30283
17.020,26469,30292
17.031,26479,30296
17.041,26493,30301
17.052,26503,30309
17.054,26520,30321
17.064,26536,30329
17.079,26556,30345
17.087,26568,30347
17.094,26579,30355
17.111,26581,30349
17.111,26579,30347
17.126,26575,30347
17.126,26569,30345
17.142,26560,30335
17.157,26551,30333
17.157,26543,30327
17.173,26539,30323
17.190,26536,30320
17.190,26535,30321
17.205,26535,30323
17.221,26537,30325
17.221,26546,30325
17.236,26554,30330
17.236,26563,30334
17.252,26580,30346
17.269,26583,30349
17.279,26597,30353
17.287,26605,30359
17.302,26618,30362
17.303,26623,30366
17.320,26637,30374
17.334,26642,30383
17.334,26652,30388
17.354,26664,30390
17.362,26671,30395
17.372,26678,30397
17.381,26687,30402
17.389,26692,30407
17.397,26705,30412
17.411,26707,30411
17.419,26723,30420
17.429,26723,30426
17.439,26737,30429
17.446,26739,30430
17.460,26748,30431
17.469,26749,30436
17.478,26759,30438
17.493,26761,30440
17.501,26774,30449
17.510,26778,30445
17.510,26788,30453
17.527,26788,30452
17.543,26794,30454
17.543,26798,30459
17.559,26806,30463
17.574,26813,30462
17.574,26824,30470
17.590,26832,30474
17.606,26841,30481
17.606,26853,30480
17.621,26864,30491
17.621,26871,30498
17.637,26883,30504
17.653,26882,30501
17.653,26874,30499
17.668,26847,30474
17.684,26802,30446
17.695,26740,30405
17.703,26683,30374
17.710,26627,30344
17.724,26576,30313
17.728,26532,30289
17.745,26498,30269
17.753,26477,30256
17.764,26459,30252
17.777,26457,30249
17.780,26459,30252
17.794,26461,30252
17.804,26472,30261
17.814,26485,30265
17.828,26500,30275
17.836,26507,30280
17.848,26526,30293
17.857,26528,30294
17.868,26546,30304
17.876,26554,30310
17.884,26572,30318
17.893,26584,30323
17.900,26606,30336
17.916,26613,30341
17.916,26624,30346
17.932,26621,30339
17.944,26618,30338
17.953,26613,30332
17.960,26610,30332
17.976,26598,30330
17.985,26592,30323
17.993,26586,30318
18.002,26584,30315
18.017,26578,30312
18.026,26579,30312
18.030,26579,30314
18.046,26582,30311
18.046,26587,30318
18.062,26596,30322
18.076,26603,30328
18.087,26615,30332
18.096,26622,30340
18.096,26633,30343
18.113,26643,30351
18.129,26653,30351
18.129,26661,30356
18.147,26677,30361
18.147,26690,30368
18.164,26696,30373
18.176,26709,30382
18.180,26718,30381
18.196,26727,30391
18.209,26733,30393
18.213,26746,30401
18.226,26746,30401
18.231,26754,30405
18.247,26752,30406
18.260,26766,30410
18.262,26769,30411
18.280,26772,30418
18.280,26780,30416
18.296,26786,30422
18.296,26787,30422
18.313,26790,30423
18.329,26791,30422
18.329,26798,30429
18.346,26797,30428
18.346,26805,30431
18.363,26806,30428
18.376,26809,30431
18.380,26815,30431
18.396,26817,30434
18.410,26826,30442
18.414,26831,30445
18.430,26837,30446
18.430,26851,30455
18.443,26857,30460
18.459,26874,30467
18.467,26873,30467
18.479,26885,30471
18.479,26885,30470
18.496,26888,30472
18.512,26863,30453
18.512,26831,30433
18.526,26771,30400
18.532,26715,30365
18.546,26654,30328
18.563,26602,30301
18.573,26559,30274
18.582,26525,30258
18.593,26494,30241
18.596,26479,30234
18.611,26469,30227
18.612,26472,30232
18.629,26470,30233
18.642,26484,30241
18.645,26490,30242
18.659,26501,30249
18.673,26508,30254
18.676,26525,30262
18.692,26527,30264
18.701,26538,30271
18.709,26543,30277
18.709,26557,30286
18.724,26569,30289
18.740,26586,30297
18.740,26595,30301
18.756,26603,30303
18.771,26604,30306
18.779,26606,30305
18.793,26604,30301
18.801,26602,30296
18.809,26598,30293
18.809,26593,30291
18.832,26589,30288
18.842,26584,30286
18.855,26581,30287
18.865,26583,30285
18.875,26582,30283
18.883,26587,30290
18.893,26589,30288
18.903,26603,30300
18.913,26609,30301
18.925,26620,30308
18.934,26626,30312
18.946,26641,30319
18.955,26652,30322
18.966,26659,30331
18.972,26668,30335
18.984,26681,30342
18.994,26686,30345
19.004,26700,30351
19.016,26702,30350
19.026,26716,30359
19.035,26720,30362
19.045,26733,30369
19.057,26740,30371
19.065,26756,30377
19.074,26758,30384
19.084,26774,30388
19.096,26775,30392
19.107,26787,30397
19.116,26794,30396
19.123,26803,30404
19.134,26802,30402
19.144,26808,30409
19.154,26814,30407
19.167,26818,30413
19.177,26818,30412
19.188,26822,30411
19.194,26828,30413
19.204,26829,30414
19.215,26829,30417
19.224,26836,30420
19.237,26838,30418
19.246,26844,30423
19.257,26852,30424
19.267,26855,30429
19.278,26868,30429
19.285,26878,30442
19.296,26883,30442
19.306,26903,30451
19.316,26901,30455
19.327,26914,30464
19.338,26920,30465
19.347,26927,30468
19.359,26916,30454
19.369,26895,30440
19.376,26852,30412
19.387,26798,30383
19.396,26740,30345
19.406,26690,30320
19.418,26640,30295
19.428,26608,30270
19.436,26573,30257
19.446,26555,30246
19.456,26544,30237
19.466,26542,30239
19.477,26536,30237
19.489,26546,30246
19.498,26549,30248
19.510,26565,30257
19.516,26574,30264
19.527,26589,30266
19.537,26590,30271
19.547,26607,30279
19.559,26611,30278
19.569,26630,30286
19.579,26635,30295
19.587,26655,30304
19.597,26668,30312
19.608,26681,30318
19.617,26679,30317
19.629,26688,30318
19.640,26677,30314
19.649,26672,30312
19.660,26664,30309
19.670,26661,30301
19.678,26652,30297
19.688,26646,30292
19.698,26642,30291
19.708,26639,30286
19.720,26638,30290
19.730,26640,30288
19.738,26647,30293
19.748,26651,30292
19.759,26663,30297
19.768,26669,30301
19.779,26677,30308
19.792,26683,30310
19.802,26689,30313
19.811,26697,30315
19.819,26709,30326
19.830,26709,30321
19.840,26718,30329
19.850,26723,30331
19.861,26730,30335
19.871,26735,30341
19.881,26744,30343
19.889,26750,30345
19.900,26755,30349
19.910,26761,30351
19.920,26773,30355
19.933,26777,30355
19.943,26781,30362
19.953,26787,30363
19.963,26790,30367
19.973,26795,30365
19.980,26802,30370
19.991,26803,30369
20.001,26805,30375
20.010,26807,30373
20.023,26815,30373
20.034,26817,30375
20.041,26821,30380
20.054,26830,30378
20.064,26834,30384
20.073,26841,30388
20.082,26853,30396
20.092,26855,30400
20.102,26869,30406
20.114,26872,30405
20.123,26878,30410
20.133,26868,30403
20.145,26861,30397
20.153,26829,30374
20.163,26787,30347
20.171,26731,30313
20.182,26685,30283
20.191,26627,30254
20.204,26589,30233
20.215,26553,30214
20.224,26532,30201
20.232,26508,30191
20.245,26507,30188
20.255,26492,30181
20.265,26499,30186
20.274,26500,30185
20.285,26510,30191
20.292,26515,30195
20.302,26528,30204
20.313,26531,30209
20.323,26542,30210
20.336,26547,30216
20.345,26557,30224
20.355,26564,30222
20.363,26581,30233
20.373,26591,30237
20.383,26604,30246
20.393,26613,30251
20.405,26621,30250
20.415,26618,30248
20.425,26615,30248
20.436,26606,30246
20.446,26599,30239
20.454,26590,30234
20.465,26587,30227
20.473,26577,30222
20.487,26573,30219
20.495,26565,30216
20.506,26572,30223
20.515,26569,30217
20.527,26575,30223
20.537,26578,30219
20.547,26591,30232
20.554,26593,30231
20.564,26600,30238
20.575,26607,30237
20.586,26619,30250
20.597,26627,30250
20.608,26634,30258
20.618,26640,30257
20.627,26650,30259
20.637,26649,30262
20.646,26662,30270
20.655,26667,30272
20.665,26677,30275
20.675,26683,30277
20.687,26692,30285
20.697,26693,30287
20.706,26705,30290
20.717,26710,30295
20.727,26716,30297
20.737,26720,30301
20.746,26730,30307
20.757,26731,30302
20.767,26737,30305
20.778,26738,30308
20.788,26741,30306
20.796,26737,30307
20.808,26743,30305
20.818,26745,30306
20.829,26751,30308
20.837,26752,30311
20.847,26754,30312
20.858,26754,30313
20.867,26762,30315
20.878,26770,30322
20.887,26775,30330
20.899,26780,30327
20.910,26793,30330
20.920,26798,30332
20.928,26810,30341
20.938,26805,30337
20.948,26813,30345
20.957,26795,30330
20.969,26779,30319
20.980,26735,30288
20.989,26682,30255
20.999,26625,30223
21.010,26575,30195
21.017,26527,30167
21.028,26498,30149
21.038,26461,30134
21.048,26448,30122
21.060,26430,30117
21.070,26434,30118
21.078,26429,30117
21.091,26440,30126
21.100,26442,30130
21.111,26457,30137
21.119,26466,30143
21.128,26478,30146
21.139,26485,30152
21.148,26497,30158
21.162,26498,30161
21.171,26511,30169
21.181,26517,30169
21.192,26530,30180
21.202,26545,30183
21.210,26553,30189
21.219,26560,30193
21.229,26562,30196
21.239,26558,30192
21.251,26555,30187
21.261,26546,30182
21.269,26539,30181
21.282,26533,30173
21.292,26529,30172
21.299,26524,30169
21.310,26525,30170
21.320,26523,30169
21.332,26523,30164
21.342,26519,30168
21.352,26528,30167
21.361,26532,30175
21.370,26541,30175
21.380,26550,30181
21.390,26555,30184
21.400,26570,30193
21.413,26580,30196
21.423,26588,30204
21.433,26601,30203
21.440,26607,30212
21.451,26618,30216
21.461,26627,30223
21.470,26639,30231
21.483,26647,30235
21.493,26657,30240
21.503,26670,30250
21.511,26671,30251
21.521,26682,30255
21.532,26687,30260
21.541,26697,30261
21.553,26696,30265
21.564,26708,30267
21.574,26707,30265
21.584,26717,30269
21.595,26709,30271
21.603,26719,30272
21.612,26718,30271
21.622,26723,30277
21.632,26725,30275
21.644,26734,30278
21.655,26731,30280
21.662,26739,30281
21.674,26739,30282
21.685,26745,30287
21.693,26755,30291
21.702,26758,30296
21.712,26767,30294
21.722,26773,30300
21.735,26778,30300
21.745,26789,30308
21.753,26792,30310
21.765,26803,30319
21.775,26810,30319
21.786,26817,30323
21.793,26801,30305
21.803,26767,30287
21.813,26723,30254
21.824,26665,30223
21.836,26614,30191
21.845,26565,30170
21.857,26532,30145
21.867,26501,30133
21.876,26482,30121
21.885,26473,30119
21.894,26465,30112
21.904,26471,30118
21.916,26470,30118
21.926,26484,30130
21.936,26491,30132
21.945,26505,30142
21.957,26506,30143
21.966,26525,30148
21.976,26528,30155
21.985,26536,30156
21.994,26541,30162
22.005,26559,30170
22.015,26563,30174
22.027,26582,30185
22.037,26590,30189
22.047,26599,30189
22.057,26592,30188
22.068,26593,30187
22.075,26580,30180
22.085,26582,30175
22.095,26569,30170
22.106,26564,30168
22.117,26557,30160
22.127,26553,30159
22.138,26542,30157
22.147,26551,30160
22.158,26549,30160
22.165,26555,30164
22.176,26558,30164
22.186,26566,30170
22.197,26572,30171
22.209,26584,30178
22.219,26589,30179
22.226,26594,30183
22.236,26601,30185
22.247,26611,30193
22.258,26617,30199
22.268,26627,30204
22.279,26635,30203
22.290,26646,30210
22.296,26649,30210
22.309,26656,30221
22.318,26657,30219
22.330,26670,30224
22.337,26672,30225
22.348,26686,30232
22.358,26685,30236
22.368,26698,30238
22.379,26697,30240
22.390,26708,30242
22.400,26711,30245
22.408,26718,30248
22.417,26719,30250
22.428,26726,30251
22.438,26728,30253
22.451,26732,30259
22.460,26733,30259
22.471,26743,30262
22.478,26744,30263
22.488,26753,30262
22.498,26760,30274
22.509,26763,30275
22.521,26775,30279
22.530,26781,30284
22.541,26791,30290
22.548,26797,30293
22.559,26803,30293
22.568,26806,30301
22.581,26804,30292
22.592,26796,30286
22.601,26760,30259
22.612,26715,30233
22.620,26661,30196
22.629,26613,30173
22.639,26567,30142
22.649,26523,30126
22.662,26494,30106
22.671,26473,30097
22.682,26462,30088
22.690,26460,30099
22.699,26461,30094
22.710,26468,30102
22.719,26470,30097
22.733,26479,30111
22.743,26489,30106
22.752,26499,30119
22.762,26500,30119
22.772,26518,30129
22.780,26519,30128
22.791,26534,30134
22.800,26543,30141
22.812,26553,30148
22.823,26563,30155
22.833,26575,30161
22.842,26579,30161
22.853,26581,30160
22.864,26572,30152
22.872,26566,30152
22.884,26560,30144
22.894,26554,30141
22.904,26545,30137
22.912,26539,30131
22.922,26533,30130
22.931,26527,30124
22.942,26526,30124
22.954,26524,30124
22.965,26531,30126
22.974,26533,30127
22.983,26537,30131
22.993,26544,30132
23.003,26551,30143
23.015,26558,30142
23.025,26564,30149
23.035,26575,30155
23.045,26580,30159
23.053,26585,30156
23.063,26587,30165
23.073,26593,30162
23.083,26598,30165
23.095,26607,30170
23.105,26613,30173
23.116,26618,30174
23.122,26620,30176
23.133,26629,30180
23.143,26632,30185
23.153,26638,30182
23.165,26642,30186
23.176,26645,30193
23.186,26650,30191
23.194,26654,30193
23.203,26658,30194
23.214,26657,30198
23.223,26665,30202
23.235,26666,30201
23.246,26673,30203
23.254,26669,30201
23.266,26678,30204
23.275,26677,30206
23.286,26685,30211
23.296,26684,30208
23.306,26688,30208
23.314,26692,30214
23.325,26702,30220
23.334,26705,30221
23.344,26710,30224
23.356,26715,30227
23.366,26724,30230
23.377,26728,30235
23.385,26737,30238
23.396,26744,30243
23.405,26755,30251
23.418,26759,30249
23.427,26764,30258
23.437,26758,30251
23.446,26742,30236
23.457,26703,30212
23.467,26653,30185
23.475,26602,30147
23.485,26546,30116
23.495,26497,30091
23.505,26452,30066
23.518,26417,30042
23.527,26392,30036
23.535,26372,30020
23.548,26369,30023
23.558,26361,30018
23.568,26370,30025
23.576,26371,30026
23.589,26381,30034
23.597,26387,30039
23.607,26401,30043
23.619,26406,30046
23.629,26416,30051
23.638,26416,30052
23.648,26429,30060
23.659,26432,30059
23.668,26449,30073
23.677,26452,30076
23.688,26466,30078
23.700,26460,30081
23.709,26470,30082
23.721,26469,30080
23.727,26466,30081
23.738,26461,30072
23.748,26453,30071
23.758,26444,30068
23.770,26440,30059
23.780,26435,30059
23.787,26432,30055
23.798,26429,30056
23.807,26428,30053
23.821,26428,30056
23.829,26429,30063
23.840,26433,30056
23.851,26440,30065
23.858,26446,30064
23.869,26457,30074
23.879,26459,30072
23.888,26468,30085
23.900,26474,30085
23.910,26488,30090
23.921,26489,30089
23.928,26498,30102
23.938,26504,30099
23.948,26511,30107
23.958,26511,30107
23.971,26527,30110
23.981,26525,30113
23.992,26538,30116
23.999,26540,30119
24.009,26546,30127
24.019,26548,30125
24.029,26560,30130
24.042,26560,30131
24.052,26569,30133
24.062,26572,30138
24.070,26576,30139
24.080,26578,30144
24.090,26585,30146
24.101,26587,30144
24.112,26593,30148
24.123,26597,30148
24.133,26603,30152
24.141,26603,30154
24.150,26607,30158
24.160,26609,30158
24.170,26617,30158
24.182,26618,30165
24.192,26630,30167
24.203,26629,30169
24.210,26639,30176
24.220,26642,30179
24.230,26651,30185
24.240,26657,30187
24.254,26668,30192
24.262,26671,30194
24.274,26682,30202
24.283,26687,30202
24.294,26693,30208
24.301,26692,30205
24.311,26695,30205
24.321,26669,30188
24.331,26640,30164
24.344,26589,30135
24.353,26537,30107
24.361,26488,30074
24.374,26441,30054
24.383,26407,30030
24.394,26377,30016
24.402,26350,30001
24.411,26337,29997
24.422,26330,29992
24.432,26333,29999
24.444,26338,29999
24.452,26344,30005
24.464,26351,30010
24.475,26361,30020
24.485,26371,30023
24.492,26380,30027
24.502,26381,30024
24.512,26394,30034
24.524,26398,30042
24.535,26411,30045
24.545,26421,30051
24.555,26431,30058
24.565,26434,30062
24.576,26445,30062
24.583,26444,30064
24.593,26442,30059
24.604,26433,30057
24.613,26432,30055
24.625,26423,30049
24.635,26425,30050
24.643,26410,30041
24.655,26408,30034
24.665,26399,30033
24.674,26402,30033
24.683,26397,30036
24.694,26406,30038
24.704,26410,30042
24.716,26417,30045
24.726,26422,30052
24.734,26433,30055
24.744,26436,30060
24.754,26450,30063
24.764,26457,30072
24.774,26468,30078
24.786,26474,30084
24.797,26482,30086
24.807,26493,30094
24.815,26502,30098
24.825,26512,30100
24.834,26518,30106
24.845,26523,30111
24.857,26533,30114
24.867,26540,30119
24.877,26542,30120
24.885,26552,30126
24.895,26554,30126
24.905,26560,30133
24.915,26566,30131
24.927,26575,30140
24.937,26576,30141
24.948,26585,30146
24.957,26588,30143
24.967,26596,30148
24.976,26597,30151
24.985,26600,30153
24.996,26608,30154
25.008,26610,30163
25.019,26616,30164
25.028,26625,30167
25.036,26631,30169
25.048,26635,30173
25.058,26644,30175
25.069,26648,30184
25.078,26659,30187
25.087,26669,30192
25.098,26678,30196
25.107,26685,30204
25.119,26690,30208
25.129,26694,30209
25.138,26685,30201
25.149,26664,30185
25.160,26619,30156
25.167,26576,30136
25.178,26521,30102
25.188,26475,30081
25.198,26430,30049
25.209,26394,30035
25.219,26365,30015
25.228,26343,30009
25.239,26332,30000
25.250,26332,30001
25.260,26329,30001
25.268,26338,30006
25.278,26342,30007
25.288,26362,30021
25.298,26366,30024
25.310,26379,30032
25.320,26382,30039
25.330,26399,30043
25.340,26403,30048
25.351,26415,30057
25.358,26428,30058
25.369,26441,30074
25.378,26454,30080
25.388,26465,30084
25.401,26467,30085
25.411,26470,30085
25.421,26466,30080
25.431,26465,30077
25.443,26452,30075
25.450,26447,30073
25.460,26439,30064
25.470,26439,30061
25.480,26430,30057
25.492,26430,30062
25.502,26431,30060
25.509,26432,30064
25.521,26432,30064
25.533,26440,30068
25.542,26444,30070
25.551,26455,30081
25.560,26461,30083
25.571,26477,30092
25.582,26477,30093
25.593,26494,30105
25.603,26499,30102
25.613,26512,30112
25.622,26512,30117
25.633,26522,30116
25.640,26529,30122
25.651,26539,30126
25.661,26542,30132
25.671,26555,30137
25.683,26561,30137
25.692,26567,30149
25.701,26576,30153
25.713,26582,30155
25.723,26589,30155
25.733,26592,30164
25.743,26597,30161
25.755,26607,30165
25.762,26608,30168
25.772,26617,30171
25.782,26620,30174
25.792,26623,30177
25.804,26627,30177
25.814,26635,30181
25.822,26637,30180
25.832,26642,30189
25.841,26642,30186
25.853,26652,30190
25.864,26645,30193
25.875,26657,30199
25.885,26662,30200
25.892,26672,30202
25.902,26672,30209
25.912,26686,30208
25.922,26684,30219
25.935,26699,30221
25.944,26698,30224
25.956,26709,30228
25.962,26717,30232
25.973,26727,30240
25.983,26727,30239
25.993,26739,30244
26.005,26729,30235
26.013,26714,30226
26.026,26673,30197
26.033,26620,30172
26.043,26562,30134
26.053,26507,30105
26.063,26451,30071
26.075,26405,30048
26.086,26370,30028
26.096,26334,30009
26.105,26316,29999
26.114,26304,29998
26.124,26301,29995
26.134,26302,30000
26.146,26303,30000
26.156,26314,30009
26.167,26320,30012
26.174,26333,30016
26.185,26335,30021
26.194,26347,30022
26.204,26346,30027
26.216,26359,30033
26.226,26359,30034
26.237,26374,30043
26.244,26378,30048
26.255,26396,30054
26.265,26401,30059
26.275,26411,30062
26.287,26405,30060
26.298,26406,30060
26.308,26399,30056
26.316,26394,30049
26.325,26380,30045
26.336,26385,30045
26.345,26373,30045
26.359,26371,30040
26.368,26371,30039
26.378,26368,30038
26.386,26368,30039
26.396,26375,30039
26.407,26369,30047
26.419,26380,30043
26.428,26387,30049
26.438,26392,30055
26.449,26403,30065
26.459,26413,30061
26.469,26422,30074
26.477,26432,30074
26.488,26436,30082
26.497,26448,30085
26.510,26458,30093
26.520,26468,30098
26.530,26477,30104
26.538,26482,30109
26.550,26492,30114
26.560,26496,30120
26.568,26503,30121
26.578,26512,30126
26.588,26520,30130
26.598,26527,30132
26.610,26533,30136
26.620,26536,30138
26.628,26541,30143
26.641,26546,30142
26.649,26550,30147
26.660,26557,30149
26.667,26563,30154
26.678,26567,30154
26.688,26573,30155
26.698,26575,30157
26.710,26584,30164
26.718,26584,30169
26.731,26595,30169
26.738,26593,30174
26.749,26603,30176
26.759,26607,30177
26.769,26609,30184
26.781,26620,30185
26.792,26625,30190
26.801,26626,30191
26.810,26639,30197
26.820,26641,30197
26.823,26655,30205
26.835,26656,30208
26.851,26669,30217
26.851,26678,30217
26.872,26686,30225
26.880,26684,30223
26.880,26681,30222
26.896,26659,30207
26.896,26621,30183
26.911,26567,30150
26.927,26512,30121
26.943,26461,30090
26.943,26411,30065
26.958,26365,30033
26.958,26325,30019
26.974,26301,30006
26.989,26286,30002
26.989,26271,29988
27.005,26271,29988
27.020,26269,29994
27.031,26275,29998
27.036,26284,30000
27.047,26289,30006
27.054,26297,30007
27.070,26307,30013
27.078,26311,30015
27.086,26321,30022
27.102,26327,30027
27.112,26344,30034
27.123,26348,30043
27.130,26365,30051
27.130,26371,30054
27.145,26385,30055
27.158,26382,30056
27.169,26387,30055
27.177,26374,30048
27.185,26375,30047
27.201,26363,30043
27.201,26357,30038
27.216,26350,30034
27.233,26349,30035
27.234,26347,30026
27.250,26349,30034
27.265,26345,30033
27.265,26354,30040
27.281,26357,30038
27.281,26365,30046
27.296,26374,30049
27.304,26384,30059
27.321,26395,30056
27.321,26403,30068
27.338,26417,30069
27.352,26426,30082
27.360,26435,30083
27.368,26445,30095
27.384,26457,30101
27.384,26464,30104
27.400,26474,30108
27.400,26483,30116
27.415,26491,30118
27.430,26503,30125
27.430,26509,30128
27.446,26516,30131
27.462,26520,30136
27.462,26531,30139
27.477,26536,30142
27.493,26544,30148
27.493,26550,30155
27.509,26563,30159
27.524,26564,30160
27.524,26577,30166
27.547,26575,30168
27.551,26589,30169
27.559,26588,30173
27.574,26598,30175
27.582,26597,30178
27.590,26612,30186
27.606,26610,30188
27.606,26618,30191
27.622,26626,30193
27.622,26638,30201
27.637,26646,30204
27.653,26656,30215
27.653,26666,30217
27.669,26673,30223
27.684,26677,30226
27.684,26688,30232
27.700,26686,30225
27.715,26683,30228
27.715,26659,30205
27.731,26622,30185
27.747,26582,30155
27.747,26532,30135
27.762,26487,30108
27.778,26439,30088
27.778,26402,30062
27.794,26370,30050
27.794,26352,30037
27.809,26341,30034
27.825,26335,30034
27.835,26342,30033
27.843,26342,30040
27.851,26356,30042
27.859,26359,30048
27.868,26376,30055
27.883,26383,30061
27.899,26399,30072
27.899,26405,30077
27.919,26421,30084
27.927,26428,30090
27.938,26447,30094
27.949,26457,30102
27.956,26472,30115
27.970,26484,30117
27.974,26493,30122
27.974,26493,30121
27.990,26489,30121
28.005,26484,30120
28.005,26481,30114
28.021,26475,30113
28.038,26467,30108
28.045,26466,30107
28.051,26465,30108
28.068,26458,30102
28.076,26459,30108
28.084,26456,30106
28.100,26459,30108
28.106,26461,30112
28.112,26473,30114
28.129,26477,30125
28.129,26487,30127
28.144,26493,30129
28.144,26500,30135
28.160,26504,30143
28.176,26514,30140
28.176,26521,30150
28.191,26526,30154
28.207,26535,30161
28.207,26545,30164
28.223,26551,30175
28.238,26568,30180
28.238,26577,30186
28.254,26591,30193
28.269,26603,30204
28.269,26618,30208
28.285,26632,30219
28.301,26654,30235
28.301,26674,30250
28.316,26693,30258
28.316,26715,30273
28.332,26727,30282
28.348,26747,30294
28.348,26765,30301
28.364,26788,30318
28.379,26798,30328
28.379,26818,30339
28.400,26825,30345
28.408,26837,30346
28.417,26842,30358
28.417,26857,30361
28.433,26863,30370
28.449,26875,30374
28.449,26884,30381
28.471,26889,30384
28.476,26895,30387
28.492,26902,30397
28.501,26909,30393
28.513,26914,30400
28.524,26916,30401
28.533,26928,30409
28.542,26928,30408
28.552,26932,30410
28.561,26935,30408
28.571,26940,30417
28.583,26937,30410
28.590,26920,30401
28.600,26891,30382
28.608,26847,30356
28.617,26787,30318
28.632,26724,30287
28.632,26657,30242
28.648,26589,30207
28.664,26532,30173
28.672,26485,30147
28.685,26443,30124
28.687,26414,30114
28.703,26393,30097
28.703,26378,30095
28.720,26366,30088
28.726,26364,30086
28.736,26362,30084
28.755,26368,30085
28.755,26363,30085
28.770,26369,30088
28.770,26361,30088
28.786,26370,30084
28.803,26364,30083
28.816,26377,30091
28.826,26377,30092
28.837,26388,30097
28.844,26390,30099
28.853,26401,30106
28.863,26393,30104
28.873,26393,30097
28.887,26387,30093
28.896,26379,30086
28.907,26361,30077
28.913,26355,30075
28.924,26347,30068
28.934,26339,30065
28.944,26330,30054
28.956,26325,30059
28.967,26314,30048
28.977,26309,30050
28.984,26308,30047
28.994,26308,30048
29.004,26310,30047
29.014,26310,30052
29.026,26313,30050
29.037,26320,30055
29.046,26325,30054
29.055,26329,30064
29.066,26334,30063
29.075,26347,30070
29.085,26350,30072
29.097,26361,30084
29.107,26362,30080
29.118,26370,30088
29.126,26376,30091
29.136,26392,30098
29.145,26392,30100
29.158,26405,30107
29.167,26413,30111
29.179,26426,30118
29.186,26430,30122
29.199,26443,30126
29.208,26447,30127
29.215,26460,30138
29.226,26463,30138
29.236,26474,30146
29.246,26479,30149
29.258,26491,30155
29.268,26498,30164
29.277,26510,30167
29.286,26511,30170
29.296,26525,30176
29.307,26529,30183
29.317,26539,30186
29.330,26548,30187
29.340,26556,30192
29.350,26564,30192
29.358,26572,30201
29.368,26581,30207
29.378,26594,30213
29.388,26600,30217
29.399,26614,30223
29.410,26623,30230
29.419,26638,30241
29.427,26648,30248
29.438,26663,30254
29.448,26668,30257
29.461,26676,30262
29.470,26682,30261
29.481,26687,30263
29.491,26677,30259
29.501,26657,30246
29.511,26612,30220
29.519,26564,30190
29.529,26499,30148
29.539,26449,30124
29.549,26386,30084
29.562,26347,30063
29.571,26297,30041
29.579,26278,30027
29.592,26255,30020
29.601,26250,30012
29.611,26241,30010
29.618,26247,30013
29.629,26249,30017
29.639,26259,30024
29.649,26262,30028
29.662,26275,30032
29.669,26288,30041
29.681,26296,30046
29.689,26314,30055
29.699,26328,30065
29.709,26340,30075
29.719,26362,30084
29.732,26373,30093
29.742,26390,30103
29.752,26395,30108
29.761,26406,30107
29.770,26398,30107
29.780,26400,30105
29.790,26392,30104
29.802,26390,30098
29.812,26380,30095
29.824,26376,30089
29.830,26367,30091
29.840,26365,30086
29.850,26361,30081
29.863,26365,30084
29.872,26361,30088
29.884,26369,30084
29.894,26376,30093
29.901,26383,30096
29.912,26387,30103
29.922,26398,30106
29.932,26408,30115
29.944,26414,30121
29.954,26425,30130
29.964,26436,30129
29.972,26447,30135
29.982,26452,30143
29.992,26466,30147
30.002,26473,30153
30.015,26489,30160
30.023,26491,30162
30.034,26502,30168
30.042,26508,30172
30.052,26520,30179
30.062,26524,30183
30.072,26534,30186
30.085,26533,30188
30.093,26546,30189
30.105,26552,30194
30.112,26559,30197
30.122,26563,30204
30.133,26571,30201
30.144,26575,30204
30.155,26579,30208
30.166,26585,30213
30.175,26586,30215
30.183,26599,30216
30.194,26605,30226
30.204,26609,30224
30.214,26613,30233
30.225,26614,30229
30.236,26625,30236
30.245,26631,30234
30.253,26641,30247
30.263,26642,30248
30.273,26655,30256
30.284,26656,30255
30.296,26665,30259
30.306,26662,30258
30.317,26666,30258
30.324,26651,30250
30.336,26632,30238
30.344,26585,30208
30.355,26536,30179
30.367,26475,30143
30.377,26423,30111
30.387,26366,30082
30.395,26326,30059
30.405,26287,30040
30.415,26260,30025
30.425,26242,30015
30.437,26235,30011
30.448,26228,30004
30.457,26232,30013
30.466,26237,30016
30.476,26251,30022
30.486,26256,30027
30.498,26272,30035
30.508,26275,30040
30.518,26291,30047
30.527,26301,30054
30.538,26317,30059
30.549,26330,30077
30.555,26355,30082
30.567,26367,30091
30.577,26382,30099
30.585,26393,30107
30.598,26395,30109
30.607,26393,30102
30.616,26395,30105
30.629,26388,30101
30.638,26391,30106
30.649,26377,30092
30.656,26373,30094
30.667,26368,30091
30.676,26368,30090
30.686,26364,30091
30.701,26371,30092
30.706,26372,30095
30.719,26382,30097
30.729,26391,30107
30.740,26406,30117
30.747,26415,30122
30.757,26426,30129
30.768,26437,30135
30.777,26452,30139
30.790,26455,30144
30.799,26467,30153
30.809,26479,30156
30.819,26493,30162
30.830,26501,30170
30.838,26508,30176
30.849,26517,30181
30.858,26524,30185
30.871,26536,30188
30.881,26540,30197
30.891,26549,30197
30.899,26557,30202
30.910,26564,30205
30.921,26572,30212
30.931,26575,30212
30.939,26584,30216
30.949,26588,30219
30.959,26595,30225
30.969,26595,30226
30.982,26609,30229
30.991,26610,30231
31.002,26618,30235
31.011,26621,30239
31.022,26632,30247
31.030,26635,30251
31.040,26645,30256
31.049,26651,30255
31.059,26660,30262
31.071,26666,30264
31.081,26677,30273
31.090,26683,30277
31.102,26694,30280
31.112,26700,30284
31.122,26716,30297
31.130,26727,30301
31.139,26736,30306
31.150,26747,30311
31.160,26750,30311
31.173,26757,30313
31.181,26747,30307
31.193,26721,30288
31.202,26674,30261
31.213,26620,30227
31.222,26562,30195
31.230,26496,30161
31.240,26444,30128
31.250,26381,30094
31.262,26341,30074
31.273,26306,30059
31.284,26290,30042
31.292,26271,30036
31.304,26273,30036
31.311,26272,30035
31.321,26284,30047
31.331,26285,30049
31.341,26299,30054
31.354,26305,30061
31.364,26321,30064
31.371,26320,30069
31.384,26340,30075
31.393,26349,30083
31.404,26365,30090
31.413,26378,30102
31.421,26395,30111
31.433,26401,30116
31.442,26409,30118
31.455,26413,30117
31.461,26409,30118
31.475,26408,30123
31.482,26404,30114
31.492,26394,30109
31.502,26388,30103
31.512,26377,30102
31.524,26369,30093
31.535,26362,30090
31.546,26359,30088
31.553,26358,30089
31.563,26350,30082
31.572,26349,30086
31.583,26352,30082
31.596,26354,30086
31.606,26359,30089
31.616,26351,30088
31.624,26358,30085
31.634,26357,30086
31.644,26359,30086
31.654,26361,30087
31.667,26365,30086
31.676,26366,30088
31.685,26369,30086
31.697,26373,30089
31.706,26373,30093
31.717,26375,30087
31.724,26372,30085
31.735,26367,30079
31.745,26355,30071
31.755,26354,30071
31.767,26349,30068
31.777,26347,30068
31.787,26340,30060
31.797,26339,30057
31.807,26331,30053
31.816,26332,30054
31.825,26323,30047
31.836,26318,30037
31.848,26310,30033
31.858,26301,30029
31.868,26287,30013
31.876,26271,30006
31.888,26257,29993
31.898,26241,29984
31.906,26227,29970
31.916,26218,29965
31.926,26211,29956
31.936,26203,29954
31.948,26197,29945
31.958,26191,29944
31.967,26182,29934
31.975,26176,29937
31.986,26178,29927
31.996,26170,29928
32.006,26164,29919
32.018,26162,29916
32.028,26159,29912
32.039,26156,29905
32.046,26136,29887
32.056,26113,29872
32.066,26059,29841
32.078,26006,29809
32.088,25932,29761
32.099,25862,29721
32.109,25788,29678
32.117,25726,29640
32.127,25657,29598
32.137,25621,29575
32.149,25575,29552
32.160,25553,29537
32.169,25523,29519
32.179,25528,29519
32.189,25521,29512
32.199,25527,29512
32.207,25524,29513
32.217,25525,29510
32.227,25518,29503
32.237,25529,29502
32.249,25526,29503
32.261,25527,29497
32.271,25515,29490
32.281,25522,29487
32.291,25518,29478
32.298,25521,29479
32.308,25511,29466
32.318,25510,29466
32.328,25497,29456
32.340,25499,29460
32.350,25477,29446
32.359,25484,29450
32.371,25468,29437
32.380,25466,29437
32.391,25452,29432
32.398,25455,29435
32.409,25456,29433
32.419,25467,29442
32.429,25480,29449
32.441,25499,29469
32.449,25512,29474
32.461,25535,29496
32.471,25553,29504
32.482,25590,29527
32.489,25608,29543
32.500,25654,29575
32.509,25676,29594
32.522,25717,29618
32.532,25745,29640
32.542,25788,29669
32.552,25816,29689
32.562,25857,29716
32.572,25887,29736
32.581,25931,29761
32.590,25957,29783
32.600,26001,29812
32.610,26034,29835
32.623,26083,29866
32.633,26121,29895
32.640,26163,29920
32.653,26203,29951
32.662,26247,29981
32.675,26273,29999
32.681,26284,30007
32.692,26296,30013
32.701,26304,30023
32.711,26309,30031
32.723,26322,30042
32.733,26335,30056
32.743,26350,30071
32.754,26363,30085
32.764,26383,30104
32.771,26388,30113
32.781,26402,30125
32.791,26419,30139
32.803,26446,30169
32.813,26471,30189
32.825,26513,30226
32.835,26558,30257
32.845,26611,30302
32.855,26666,30338
32.863,26718,30380
32.873,26761,30415
32.882,26796,30448
32.892,26832,30481
32.904,26875,30529
32.914,26926,30580
32.923,26995,30652
32.933,27052,30724
32.942,27148,30824
32.953,27231,30921
32.964,27330,31032
32.975,27425,31130
32.985,27521,31236
32.993,27576,31290
33.003,27604,31332
33.013,27622,31350
33.023,27644,31389
33.036,27666,31415
33.045,27698,31461
33.055,27740,31497
33.064,27790,31553
33.073,27856,31611
33.084,27925,31679
33.093,27994,31740
33.106,28058,31802
33.116,28113,31854
33.127,28169,31905
33.135,28224,31948
33.144,28280,31992
33.154,28336,32038
33.165,28394,32077
33.176,28451,32114
33.186,28502,32145
33.198,28559,32198
33.205,28623,32258
33.216,28690,32322
33.225,28756,32379
33.236,28815,32440
33.248,28873,32490
33.258,28932,32557
33.268,28981,32600
33.276,29029,32649
33.286,29057,32675
33.296,29075,32700
33.306,29079,32705
33.318,29074,32711
33.328,29063,32703
33.338,29047,32700
33.349,29028,32682
33.358,29001,32669
33.366,28968,32633
33.375,28926,32610
33.386,28887,32575
33.396,28844,32540
33.408,28779,32478
33.419,28716,32423
33.427,28631,32337
33.436,28544,32251
33.446,28441,32154
33.457,28328,32051
33.466,28201,31930
33.479,28074,31827
33.489,27962,31731
33.500,27864,31652
33.506,27770,31563
33.517,27677,31483
33.527,27576,31393
33.537,27479,31317
33.549,27386,31222
33.559,27292,31143
33.570,27200,31050
33.577,27118,30973
33.587,27029,30885
33.597,26959,30821
33.610,26895,30745
33.620,26819,30686
33.628,26743,30601
33.640,26650,30535
33.651,26532,30427
33.661,26397,30329
33.668,26244,30196
33.679,26085,30095
33.688,25925,29963
33.698,25774,29876
33.710,25654,29767
33.721,25534,29695
33.731,25439,29618
33.741,25357,29570
33.751,25288,29507
33.759,25234,29473
33.768,25163,29403
33.780,25126,29360
33.789,25074,29316
33.801,25061,29294
33.811,25042,29274
33.820,25051,29289
33.832,25039,29281
33.843,25038,29284
33.850,25014,29266
33.860,25019,29272
33.869,24989,29259
33.881,24989,29263
33.892,24947,29248
33.902,24941,29242
33.910,24902,29224
33.920,24898,29220
33.930,24864,29206
33.940,24863,29196
33.953,24823,29173
33.962,24827,29182
33.973,24819,29176
33.980,24845,29218
33.990,24837,29229
34.000,24860,29261
34.010,24855,29265
34.021,24876,29293
34.032,24861,29294
34.043,24892,29341
34.050,24889,29395
34.061,24936,29469
34.071,24920,29480
34.081,24945,29508
34.093,24938,29531
34.103,24962,29579
34.113,24952,29609
34.121,25019,29715
34.131,25013,29668
34.141,25029,29648
34.151,25020,29574
34.163,25107,29543
34.174,25202,29708
34.183,25510,30153
34.192,25700,30341
34.202,25798,30105
34.212,25149,29022
34.224,23754,27158
34.234,22277,25437
34.243,20849,23746
34.255,19487,22053
34.265,18457,20686
34.275,17468,19352
34.283,16571,18333
34.293,15888,17629
34.303,15350,17090
34.313,14912,16660
34.326,14545,16307
34.335,14280,16067
34.345,14112,15919
34.355,13984,15817
34.366,13864,15729
34.373,13740,15641
34.384,13594,15531
34.394,13423,15402
34.404,13229,15253
34.416,12951,15027
34.426,12562,14687
34.434,12091,14260
34.446,11646,13882
34.456,11350,13680
34.467,11252,13684
34.475,11242,13783
34.484,11256,13896
34.494,11371,14183
34.504,11958,15093
34.516,12766,16359
34.527,13701,17838
34.537,14779,19471
34.547,15855,21145
34.557,16857,22757
34.565,17710,24138
34.574,18441,25273
34.584,18960,26013
34.595,19283,26220
34.607,19630,26330
34.617,20076,26567
34.625,20830,27094
34.637,21545,27672
34.648,22039,28111
34.655,22350,28383
34.665,22648,28614
34.675,22939,28814
34.685,23220,29003
34.698,23467,29150
34.708,23689,29277
34.715,23838,29371
34.726,23973,29442
34.736,24062,29515
34.747,24200,29605
34.759,24323,29695
34.769,24445,29784
34.779,24490,29828
34.789,24535,29840
34.799,24563,29881
34.809,24634,29970
34.817,24697,30039
34.823,24790,30077
34.823,24875,30111
34.839,24975,30127
34.854,25080,30134
34.854,25171,30145
34.870,25206,30207
34.886,25254,30264
34.886,25292,30342
34.901,25346,30379
34.917,25403,30434
34.917,25466,30476
34.932,25492,30498
34.948,25525,30476
34.948,25527,30462
34.967,25558,30453
34.978,25590,30466
34.987,25661,30508
34.996,25726,30556
34.996,25808,30574
35.012,26162,30899
35.027,26765,31303
35.027,27051,31469
35.044,27178,31527
35.052,27199,31548
35.068,27235,31588
35.078,27233,31611
35.086,27193,31591
35.095,27158,31581
35.111,27121,31560
35.111,27088,31553
35.127,27054,31536
35.127,27033,31530
35.142,27009,31515
35.159,26993,31519
35.159,26969,31489
35.174,26934,31471
35.174,26884,31430
35.189,26822,31389
35.207,26738,31316
35.207,26630,31250
35.222,26547,31186
35.238,26449,31114
35.238,26322,31021
35.254,26168,30915
35.269,25977,30774
35.269,25741,30613
35.287,25470,30415
35.294,25168,30214
35.311,24856,29970
35.311,24554,29763
35.327,24308,29563
35.327,24103,29418
35.342,23933,29256
35.358,23783,29136
35.358,23636,28987
35.373,23483,28851
35.389,23338,28711
35.389,23192,28588
35.405,22994,28394
35.420,22815,28253
35.420,22695,28151
35.436,22659,28171
35.452,22672,28211
35.464,22733,28333
35.471,22827,28450
35.482,22909,28554
35.489,22961,28555
35.489,22986,28521
35.505,23016,28499
35.521,23073,28535
35.521,23095,28539
35.536,23129,28552
35.552,23116,28547
35.562,23135,28554
35.570,23105,28535
35.579,23145,28573
35.595,23175,28606
35.604,23234,28653
35.613,23256,28674
35.623,23313,28713
35.633,23326,28732
35.644,23380,28777
35.644,23385,28792
35.660,23435,28830
35.670,23437,28852
35.677,23497,28892
35.685,23498,28908
35.694,23548,28935
35.710,23555,28958
35.725,23623,29006
35.725,23653,29038
35.741,23717,29081
35.741,23757,29121
35.758,23839,29169
35.773,23860,29184
35.773,23921,29223
35.789,23948,29250
35.789,24028,29305
35.813,24053,29332
35.825,24130,29381
35.837,24156,29400
35.843,24218,29440
35.851,24246,29453
35.859,24294,29490
35.867,24314,29504
35.884,24357,29533
35.888,24371,29542
35.904,24405,29566
35.904,24424,29576
35.919,24457,29597
35.935,24476,29606
35.935,24502,29631
35.952,24522,29639
35.952,24548,29658
35.967,24566,29663
35.983,24593,29680
35.983,24601,29687
35.999,24620,29695
36.014,24611,29696
36.014,24604,29685
36.030,24565,29664
36.045,24519,29630
36.053,24444,29586
36.061,24380,29546
36.077,24296,29498
36.085,24245,29465
36.095,24188,29438
36.100,24170,29425
36.116,24154,29414
36.127,24167,29426
36.137,24185,29438
36.148,24223,29460
36.155,24260,29483
36.165,24310,29514
36.177,24352,29539
36.182,24407,29565
36.196,24441,29587
36.204,24489,29610
36.213,24523,29638
36.228,24578,29665
36.236,24616,29682
36.245,24665,29713
36.254,24703,29733
36.262,24743,29760
36.279,24770,29774
36.284,24804,29794
36.300,24821,29799
36.307,24844,29813
36.320,24859,29822
36.329,24880,29834
36.333,24898,29842
36.347,24918,29859
36.355,24939,29864
36.363,24956,29881
36.380,24981,29892
36.387,25005,29915
36.398,25037,29936
36.403,25071,29958
36.419,25108,29978
36.428,25145,30005
36.438,25176,30024
36.447,25207,30047
36.447,25226,30064
36.470,25251,30077
36.478,25263,30081
36.492,25269,30087
36.499,25272,30089
36.499,25277,30092
36.518,25272,30086
36.531,25265,30087
36.531,25254,30074
36.550,25241,30071
36.558,25227,30059
36.566,25219,30054
36.580,25204,30047
36.580,25203,30046
36.597,25184,30040
36.612,25184,30034
36.614,25172,30031
36.629,25178,30038
36.629,25172,30032
36.645,25177,30036
36.645,25181,30039
36.660,25195,30043
36.676,25195,30048
36.692,25209,30054
36.692,25214,30059
36.707,25234,30067
36.707,25243,30082
36.723,25271,30089
36.739,25293,30105
36.739,25325,30122
36.754,25342,30134
36.770,25376,30145
36.779,25400,30170
36.779,25430,30187
36.795,25461,30206
36.811,25495,30222
36.811,25523,30237
36.826,25538,30246
36.842,25532,30244
36.854,25504,30219
36.864,25455,30188
36.874,25389,30150
36.881,25314,30104
36.891,25238,30062
36.902,25169,30023
36.911,25102,29985
36.923,25051,29952
36.933,25007,29929
36.943,24976,29908
36.953,24950,29893
36.965,24946,29894
36.971,24942,29885
36.982,24946,29890
36.991,24945,29888
37.003,24955,29893
37.014,24962,29895
37.025,24978,29899
37.035,24987,29904
37.046,25010,29916
37.055,25029,29929
37.063,25060,29946
37.073,25080,29960
37.083,25106,29971
37.093,25111,29969
37.105,25112,29965
37.115,25093,29955
37.123,25078,29943
37.134,25044,29918
37.144,25010,29896
37.153,24973,29873
37.163,24936,29854
37.175,24892,29826
37.185,24861,29807
37.195,24826,29784
37.203,24815,29779
37.213,24803,29766
37.223,24805,29768
37.234,24808,29769
37.245,24820,29775
37.256,24836,29787
37.266,24857,29799
37.274,24879,29807
37.284,24902,29820
37.295,24926,29830
37.306,24954,29846
37.316,24975,29856
37.326,25000,29874
37.336,25014,29878
37.346,25039,29894
37.356,25062,29905
37.364,25094,29923
37.374,25112,29936
37.384,25139,29947
37.395,25155,29958
37.406,25176,29974
37.418,25192,29974
37.424,25208,29988
37.438,25212,29988
37.448,25226,29998
37.455,25234,30001
37.465,25246,30007
37.476,25253,30010
37.486,25267,30021
37.498,25274,30021
37.508,25289,30030
37.516,25295,30031
37.528,25308,30038
37.538,25319,30044
37.548,25329,30050
37.557,25344,30056
37.566,25361,30067
37.577,25381,30072
37.589,25393,30080
37.598,25411,30086
37.608,25434,30099
37.618,25450,30110
37.628,25474,30123
37.638,25487,30131
37.646,25512,30144
37.656,25526,30147
37.666,25540,30157
37.676,25545,30155
37.689,25535,30151
37.698,25500,30122
37.707,25452,30092
37.719,25389,30054
37.729,25320,30015
37.739,25249,29967
37.747,25188,29935
37.758,25129,29898
37.768,25088,29881
37.778,25053,29860
37.789,25041,29853
37.799,25033,29850
37.810,25043,29858
37.820,25055,29866
37.831,25084,29881
37.838,25107,29898
37.849,25142,29911
37.859,25165,29925
37.869,25198,29938
37.881,25216,29955
37.890,25248,29971
37.900,25273,29987
37.911,25313,30010
37.921,25337,30021
37.928,25364,30037
37.939,25380,30049
37.948,25402,30056
37.962,25403,30059
37.971,25408,30057
37.981,25411,30058
37.992,25408,30061
38.001,25402,30056
38.012,25402,30056
38.019,25394,30047
38.029,25399,30056
38.039,25398,30053
38.049,25405,30059
38.061,25410,30054
38.071,25417,30066
38.080,25434,30073
38.092,25452,30084
38.102,25462,30087
38.110,25487,30103
38.123,25502,30111
38.132,25521,30126
38.143,25537,30131
38.150,25557,30147
38.161,25581,30153
38.170,25598,30168
38.180,25621,30177
38.192,25643,30190
38.203,25661,30201
38.213,25685,30216
38.221,25704,30225
38.231,25725,30240
38.242,25744,30247
38.250,25767,30262
38.263,25783,30274
38.273,25802,30281
38.281,25813,30288
38.293,25826,30295
38.305,25829,30297
38.311,25842,30304
38.321,25841,30308
38.331,25857,30312
38.342,25864,30315
38.354,25875,30319
38.364,25876,30319
38.371,25885,30324
38.382,25888,30326
38.392,25896,30334
38.403,25903,30340
38.414,25917,30347
38.424,25925,30352
38.435,25937,30355
38.445,25941,30361
38.452,25952,30366
38.462,25955,30367
38.472,25960,30368
38.482,25956,30361
38.494,25936,30352
38.505,25902,30327
38.515,25850,30293
38.523,25785,30256
38.532,25719,30216
38.543,25652,30179
38.555,25592,30140
38.566,25536,30114
38.575,25498,30088
38.585,25464,30075
38.596,25448,30065
38.606,25445,30065
38.613,25448,30068
38.623,25460,30077
38.634,25473,30083
38.645,25494,30097
38.655,25516,30108
38.666,25538,30120
38.677,25560,30129
38.686,25578,30147
38.697,25598,30155
38.704,25621,30170
38.714,25640,30178
38.725,25661,30187
38.735,25673,30191
38.746,25688,30200
38.756,25689,30196
38.764,25690,30204
38.777,25682,30198
38.788,25677,30193
38.794,25662,30180
38.805,25656,30181
38.816,25647,30168
38.826,25640,30166
38.835,25625,30158
38.845,25625,30158
38.854,25618,30156
38.858,25625,30161
38.876,25628,30162
38.886,25638,30170
38.898,25644,30172
38.909,25658,30185
38.918,25672,30188
38.925,25693,30197
38.925,25706,30203
38.941,25723,30218
38.956,25739,30224
38.965,25758,30237
38.975,25774,30244
38.988,25789,30254
38.998,25809,30259
39.004,25824,30274
39.012,25842,30281
39.025,25860,30294
39.035,25879,30299
39.049,25896,30312
39.059,25919,30319
39.068,25939,30338
39.077,25959,30343
39.084,25981,30359
39.094,26009,30370
39.108,26029,30389
39.117,26058,30399
39.127,26085,30416
39.140,26115,30435
39.148,26149,30453
39.159,26183,30467
39.169,26213,30495
39.180,26249,30507
39.188,26281,30527
39.198,26312,30543
39.208,26349,30566
39.212,26391,30588
39.228,26444,30621
39.241,26492,30647
39.249,26546,30678
39.257,26590,30706
39.265,26628,30726
39.277,26642,30736
39.285,26657,30743
39.299,26629,30722
39.309,26575,30689
39.319,26498,30638
39.325,26418,30589
39.334,26335,30538
39.350,26264,30495
39.357,26194,30461
39.357,26139,30431
39.373,26091,30403
39.389,26054,30385
39.389,26028,30368
39.405,26007,30365
39.420,25993,30354
39.420,25986,30350
39.436,25977,30347
39.436,25980,30350
39.451,25974,30345
39.467,25974,30350
39.467,25969,30344
39.483,25977,30350
39.503,25979,30354
39.510,25993,30364
39.514,26007,30368
39.529,26025,30381
39.529,26039,30381
39.545,26041,30388
39.561,26043,30382
39.561,26037,30378
39.575,26031,30371
39.590,26017,30367
39.590,26007,30356
39.606,25991,30354
39.606,25977,30338
39.621,25965,30334
39.638,25954,30322
39.652,25944,30322
39.652,25942,30317
39.668,25943,30319
39.668,25945,30320
39.684,25956,30327
39.699,25965,30336
39.699,25988,30346
39.724,26003,30353
39.734,26029,30369
39.741,26054,30383
39.749,26086,30403
39.758,26117,30423
39.766,26157,30446
39.782,26192,30467
39.782,26236,30491
39.798,26272,30513
39.814,26320,30536
39.814,26360,30564
39.829,26403,30591
39.840,26441,30612
39.848,26484,30633
39.856,26522,30654
39.872,26570,30685
39.885,26606,30706
39.887,26653,30731
39.895,26686,30745
39.907,26720,30772
39.923,26744,30781
39.923,26768,30795
39.939,26786,30807
39.955,26809,30820
39.955,26821,30827
39.971,26840,30835
39.986,26856,30844
39.986,26869,30853
40.002,26885,30864
40.002,26906,30875
40.017,26924,30880
40.026,26946,30893
40.043,26968,30911
40.043,27000,30927
40.058,27015,30934
40.074,27040,30946
40.074,27052,30957
40.090,27070,30964
40.090,27075,30966
40.105,27070,30958
40.121,27018,30926
40.136,26942,30883
40.143,26841,30823
40.143,26751,30769
40.159,26659,30719
40.175,26600,30684
40.175,26544,30651
40.190,26515,30629
40.206,26486,30620
40.206,26476,30612
40.223,26471,30614
40.231,26479,30620
40.240,26481,30618
40.257,26495,30626
40.265,26509,30638
40.273,26527,30649
40.273,26540,30659
40.289,26558,30671
40.304,26577,30682
40.304,26596,30693
40.320,26615,30701
40.336,26638,30717
40.336,26660,30728
40.351,26677,30739
40.367,26695,30746
40.367,26703,30750
40.383,26702,30750
40.383,26695,30740
40.407,26674,30737
40.415,26658,30719
40.424,26631,30705
40.424,26611,30689
40.439,26582,30678
40.455,26562,30659
40.455,26536,30651
40.470,26524,30639
40.486,26502,30630
40.486,26491,30622
40.507,26474,30617
40.518,26474,30611
40.529,26466,30606
40.539,26463,30602
40.539,26456,30599
40.555,26460,30599
40.570,26460,30602
40.570,26466,30608
40.586,26476,30613
40.586,26488,30616
40.602,26505,30628
40.617,26520,30639
40.617,26540,30652
40.633,26555,30660
40.648,26581,30671
40.648,26601,30686
40.665,26629,30699
40.681,26651,30715
40.681,26686,30731
40.696,26709,30747
40.696,26730,30761
40.713,26747,30771
40.731,26770,30778
40.740,26773,30781
40.748,26776,30783
40.756,26781,30783
40.756,26782,30784
40.772,26779,30782
40.787,26784,30787
40.787,26787,30783
40.803,26793,30792
40.818,26800,30794
40.818,26809,30802
40.839,26812,30803
40.850,26828,30812
40.859,26832,30808
40.871,26841,30819
40.882,26846,30819
40.893,26849,30819
40.900,26836,30814
40.910,26817,30796
40.920,26775,30767
40.930,26711,30733
40.942,26630,30682
40.953,26549,30632
40.963,26456,30581
40.970,26374,30532
40.980,26286,30477
40.990,26215,30441
41.000,26142,30398
41.013,26079,30365
41.023,26015,30332
41.034,25961,30303
41.044,25900,30263
41.055,25857,30236
41.061,25803,30212
41.071,25763,30187
41.081,25706,30155
41.091,25668,30134
41.104,25610,30099
41.113,25572,30078
41.123,25522,30051
41.133,25487,30030
41.144,25450,30008
41.151,25415,29992
41.162,25377,29966
41.171,25338,29942
41.185,25285,29909
41.195,25228,29875
41.204,25168,29841
41.211,25115,29809
41.223,25059,29776
41.233,25004,29742
41.243,24946,29705
41.255,24886,29668
41.264,24820,29628
41.275,24760,29593
41.283,24701,29556
41.293,24642,29515
41.303,24563,29466
41.313,24513,29440
41.326,24501,29433
41.336,24546,29464
41.347,24612,29507
41.353,24690,29555
41.363,24764,29599
41.373,24838,29646
41.383,24913,29685
41.396,24984,29732
41.405,25042,29758
41.416,25098,29792
41.423,25144,29818
41.434,25195,29849
41.443,25223,29866
41.457,25256,29881
41.466,25285,29896
41.476,25316,29915
41.488,25348,29934
41.494,25395,29963
41.504,25437,29990
41.514,25509,30029
41.524,25581,30077
41.537,25682,30137
41.546,25785,30195
41.557,25891,30260
41.565,25965,30302
41.574,26012,30332
41.585,26033,30335
41.595,26040,30330
41.608,26031,30328
41.615,26044,30332
41.629,26063,30344
41.635,26093,30362
41.645,26121,30383
41.655,26155,30401
41.665,26164,30406
41.677,26153,30390
41.687,26096,30360
41.698,26028,30315
41.705,25936,30262
41.716,25853,30211
41.725,25755,30156
41.736,25667,30099
41.748,25572,30045
41.758,25490,29999
41.769,25408,29950
41.776,25346,29912
41.786,25274,29878
41.796,25226,29850
41.807,25170,29814
41.818,25125,29791
41.828,25079,29760
41.839,25034,29739
41.847,24992,29706
41.856,24951,29686
41.867,24912,29656
41.878,24875,29633
41.889,24841,29609
41.899,24807,29589
41.910,24774,29562
41.918,24734,29542
41.927,24700,29518
41.938,24675,29506
41.947,24656,29489
41.959,24646,29483
41.970,24638,29479
41.980,24636,29478
41.989,24632,29469
41.997,24635,29472
42.009,24636,29469
42.020,24651,29474
42.030,24660,29481
42.041,24683,29489
42.051,24703,29499
42.059,24736,29520
42.069,24760,29530
42.079,24791,29548
42.088,24823,29569
42.100,24863,29584
42.111,24893,29605
42.121,24933,29625
42.128,24969,29650
42.140,25019,29674
42.148,25060,29698
42.159,25112,29727
42.171,25154,29749
42.181,25206,29783
42.192,25252,29807
42.199,25306,29839
42.209,25353,29867
42.220,25408,29892
42.230,25451,29923
42.241,25511,29954
42.251,25554,29980
42.259,25610,30007
42.272,25654,30038
42.282,25706,30062
42.289,25747,30089
42.301,25786,30113
42.311,25821,30136
42.321,25862,30155
42.332,25893,30176
42.343,25926,30191
42.350,25953,30213
42.363,25980,30222
42.373,26009,30241
42.384,26036,30251
42.390,26053,30264
42.400,26071,30272
42.411,26072,30270
42.420,26055,30254
42.434,26022,30229
42.443,25955,30187
42.453,25880,30141
42.463,25791,30086
42.474,25706,30036
42.481,25616,29985
42.491,25549,29949
42.501,25485,29911
42.511,25449,29895
42.524,25417,29878
42.534,25408,29877
42.543,25405,29874
42.554,25421,29883
42.564,25430,29896
42.572,25454,29904
42.582,25472,29920
42.592,25498,29933
42.604,25527,29946
42.614,25555,29969
42.624,25576,29982
42.632,25606,29999
42.645,25625,30006
42.655,25649,30024
42.662,25660,30024
42.674,25675,30037
42.682,25677,30035
42.693,25680,30035
42.706,25670,30025
42.715,25672,30028
42.723,25651,30011
42.735,25649,30012
42.745,25642,30001
42.756,25644,30007
42.763,25640,30003
42.774,25650,30016
42.783,25661,30015
42.793,25677,30028
42.806,25697,30033
42.815,25721,30055
42.827,25748,30067
42.836,25784,30091
42.847,25809,30103
42.854,25846,30130
42.866,25868,30141
42.875,25908,30162
42.884,25928,30175
42.897,25961,30196
42.907,25977,30202
42.914,26001,30215
42.927,26006,30221
42.936,26030,30235
42.946,26033,30236
42.957,26053,30247
42.968,26045,30242
42.974,26052,30243
42.985,26035,30232
42.995,26020,30224
43.006,25991,30211
43.017,25979,30196
43.027,25952,30181
43.038,25935,30171
43.045,25907,30161
43.055,25898,30150
43.065,25870,30137
43.075,25861,30130
43.089,25837,30116
43.097,25821,30106
43.106,25801,30095
43.119,25789,30087
43.130,25761,30066
43.136,25742,30062
43.146,25702,30035
43.158,25661,30005
43.168,25582,29962
43.178,25512,29919
43.189,25423,29868
43.196,25346,29828
43.206,25272,29780
43.217,25220,29749
43.226,25170,29724
43.240,25147,29713
43.248,25130,29710
43.259,25142,29717
43.266,25153,29725
43.277,25177,29740
43.288,25193,29746
43.298,25224,29770
43.310,25245,29782
43.319,25279,29796
43.327,25299,29810
43.340,25332,29828
43.349,25348,29841
43.360,25378,29857
43.368,25393,29864
43.378,25416,29877
43.389,25424,29882
43.398,25436,29886
43.411,25430,29886
43.418,25434,29885
43.431,25427,29877
43.439,25423,29873
43.448,25407,29863
43.458,25399,29859
43.468,25379,29848
43.480,25373,29843
43.490,25362,29839
43.501,25357,29833
43.509,25355,29833
43.518,25358,29837
43.529,25355,29837
43.539,25367,29844
43.551,25376,29845
43.561,25397,29861
43.572,25418,29877
43.580,25449,29892
43.589,25477,29907
43.599,25516,29934
43.609,25546,29953
43.621,25582,29974
43.631,25608,29986
43.641,25647,30007
43.652,25669,30020
43.663,25701,30037
43.670,25718,30049
43.681,25745,30059
43.690,25762,30073
43.700,25786,30087
43.713,25795,30094
43.722,25816,30103
43.731,25826,30107
43.742,25836,30106
43.752,25840,30109
43.762,25850,30116
43.771,25857,30123
43.781,25868,30129
43.790,25873,30130
43.803,25886,30135
43.813,25876,30131
43.820,25872,30125
43.834,25838,30103
43.840,25792,30072
43.852,25717,30031
43.861,25648,29983
43.871,25560,29934
43.884,25483,29887
43.893,25402,29841
43.904,25339,29806
43.911,25285,29776
43.922,25250,29760
43.932,25228,29749
43.941,25224,29746
43.954,25235,29755
43.964,25256,29773
43.975,25285,29793
43.982,25325,29813
43.993,25360,29834
44.002,25408,29862
44.014,25449,29887
44.024,25493,29911
44.035,25536,29938
44.042,25581,29964
44.052,25618,29985
44.062,25663,30006
44.072,25695,30030
44.086,25730,30042
44.094,25747,30055
44.106,25765,30063
44.113,25764,30067
44.123,25779,30061
44.133,25763,30063
44.143,25773,30062
44.155,25765,30059
44.166,25764,30054
44.177,25756,30058
44.184,25759,30055
44.194,25762,30060
44.203,25768,30062
44.213,25779,30066
44.226,25789,30072
44.236,25805,30082
44.247,25823,30090
44.254,25845,30108
44.264,25860,30118
44.274,25890,30131
44.285,25909,30145
44.296,25938,30158
44.307,25956,30169
44.318,25989,30189
44.325,26014,30200
44.335,26056,30219
44.344,26080,30239
44.355,26119,30260
44.368,26158,30284
44.377,26190,30305
44.388,26220,30315
44.395,26249,30335
44.407,26269,30345
44.415,26296,30363
44.425,26318,30374
44.437,26347,30388
44.447,26363,30404
44.457,26389,30416
44.466,26414,30430
44.475,26438,30440
44.486,26456,30447
44.496,26470,30463
44.508,26485,30464
44.518,26491,30467
44.529,26471,30447
44.537,26412,30410
44.546,26312,30350
44.556,26212,30292
44.566,26106,30227
44.578,26021,30180
44.589,25930,30130
44.598,25864,30091
44.607,25798,30051
44.617,25751,30032
44.626,25711,30007
44.640,25696,30001
44.649,25675,29990
44.658,25677,29997
44.670,25672,29993
44.677,25680,30005
44.687,25692,30005
44.697,25707,30020
44.707,25714,30023
44.719,25735,30040
44.729,25747,30043
44.741,25770,30059
44.748,25791,30075
44.757,25830,30097
44.768,25851,30109
44.778,25886,30128
44.790,25904,30138
44.801,25929,30147
44.810,25927,30150
44.818,25949,30163
44.823,25947,30158
44.839,25961,30162
44.839,25949,30155
44.855,25959,30162
44.871,25952,30158
44.882,25967,30165
44.890,25966,30167
44.890,25984,30172
44.906,25985,30182
44.906,26008,30189
44.922,26014,30197
44.937,26034,30209
44.937,26057,30217
44.957,26083,30231
44.972,26097,30241
44.975,26119,30257
44.986,26138,30265
44.994,26165,30278
45.003,26178,30288
45.020,26202,30300
45.020,26215,30304
45.037,26242,30321
45.052,26258,30334
45.052,26282,30345
45.069,26296,30350
45.075,26317,30366
45.089,26327,30368
45.101,26344,30376
45.112,26354,30376
45.122,26366,30387
45.131,26375,30395
45.141,26388,30401
45.150,26396,30402
45.156,26413,30416
45.171,26424,30417
45.171,26445,30430
45.187,26453,30431
45.187,26470,30444
45.204,26468,30447
45.219,26483,30446
45.227,26468,30440
45.235,26445,30419
45.252,26368,30375
45.252,26299,30329
45.268,26207,30274
45.268,26139,30236
45.292,26059,30194
45.292,25999,30160
45.308,25937,30125
45.324,25905,30107
45.324,25865,30087
45.339,25850,30077
45.352,25830,30069
45.361,25834,30072
45.369,25828,30075
45.369,25840,30077
45.384,25839,30080
45.401,25858,30092
45.401,25854,30093
45.416,25868,30104
45.432,25877,30104
45.432,25892,30114
45.447,25905,30120
45.463,25929,30137
45.463,25941,30143
45.479,25963,30159
45.494,25968,30157
45.494,25983,30164
45.510,25974,30160
45.510,25976,30163
45.525,25966,30151
45.544,25958,30146
45.556,25947,30140
45.564,25939,30136
45.574,25928,30124
45.580,25926,30124
45.588,25918,30123
45.604,25920,30124
45.612,25922,30120
45.621,25932,30126
45.628,25938,30130
45.638,25955,30138
45.652,25956,30142
45.662,25978,30159
45.669,25981,30159
45.686,26004,30171
45.686,26009,30173
45.703,26026,30182
45.711,26032,30189
45.719,26054,30196
45.735,26057,30202
45.735,26080,30216
45.751,26080,30213
45.767,26100,30224
45.767,26107,30225
45.782,26124,30235
45.782,26129,30241
45.798,26145,30246
45.814,26143,30241
45.814,26155,30259
45.836,26151,30250
45.844,26167,30255
45.852,26162,30257
45.868,26174,30260
45.877,26170,30260
45.887,26182,30263
45.895,26179,30260
45.902,26179,30260
45.911,26164,30254
45.918,26143,30237
45.937,26100,30214
45.949,26047,30171
45.955,25966,30126
45.966,25890,30082
45.972,25807,30040
45.986,25733,29991
45.999,25657,29955
46.009,25601,29918
46.018,25555,29898
46.029,25523,29878
46.038,25504,29874
46.038,25496,29867
46.055,25492,29872
46.055,25504,29874
46.072,25516,29886
46.087,25537,29894
46.087,25550,29908
46.103,25566,29916
46.118,25585,29927
46.126,25602,29933
46.135,25618,29942
46.135,25641,29956
46.153,25662,29966
46.169,25679,29977
46.180,25703,29992
46.185,25712,29999
46.195,25729,30005
46.201,25727,30002
46.217,25734,30003
46.217,25727,29996
46.233,25725,29994
46.248,25710,29982
46.248,25707,29986
46.264,25692,29974
46.264,25693,29976
46.280,25684,29970
46.295,25691,29973
46.311,25692,29976
46.311,25699,29979
46.327,25704,29978
46.327,25715,29986
46.342,25721,29991
46.358,25736,30003
46.358,25744,30003
46.374,25763,30017
46.389,25776,30016
46.389,25792,30032
46.405,25798,30037
46.420,25821,30049
46.420,25823,30050
46.436,25848,30064
46.452,25858,30067
46.452,25875,30079
46.468,25881,30077
46.468,25897,30091
46.483,25906,30091
46.498,25919,30097
46.498,25921,30096
46.514,25934,30108
46.530,25937,30103
46.542,25945,30114
46.553,25947,30111
46.561,25961,30120
46.569,25962,30117
46.569,25977,30129
46.586,25979,30127
46.603,25994,30135
46.603,25991,30136
46.620,26011,30142
46.620,26007,30139
46.636,26018,30143
46.636,26001,30135
46.660,25983,30121
46.669,25924,30083
46.674,25861,30045
46.693,25767,29992
46.701,25694,29945
46.709,25602,29895
46.717,25534,29855
46.717,25455,29814
46.733,25409,29789
46.749,25358,29766
46.764,25340,29754
46.764,25316,29745
46.780,25320,29747
46.780,25318,29751
46.796,25339,29760
46.811,25351,29770
46.811,25372,29786
46.835,25390,29792
46.845,25409,29802
46.853,25419,29802
46.863,25443,29821
46.873,25454,29818
46.886,25478,29839
46.895,25493,29846
46.905,25517,29856
46.916,25526,29862
46.923,25548,29872
46.934,25549,29873
46.943,25566,29882
46.953,25561,29874
46.967,25563,29878
46.975,25555,29866
46.988,25551,29873
46.993,25545,29864
47.004,25546,29864
47.014,25537,29860
47.024,25544,29865
47.037,25536,29863
47.045,25548,29866
47.057,25548,29865
47.066,25564,29876
47.077,25563,29880
47.084,25590,29886
47.096,25594,29891
47.104,25614,29904
47.117,25622,29908
47.127,25648,29919
47.137,25659,29929
47.147,25676,29938
47.157,25685,29941
47.167,25710,29957
47.175,25715,29960
47.185,25739,29973
47.195,25742,29973
47.205,25763,29981
47.217,25767,29987
47.228,25789,29998
47.235,25791,30001
47.248,25809,30004
47.258,25813,30015
47.267,25836,30022
47.276,25835,30025
47.286,25852,30034
47.296,25855,30031
47.308,25867,30039
47.318,25869,30037
47.327,25886,30050
47.339,25899,30050
47.349,25917,30071
47.360,25928,30071
47.367,25953,30088
47.377,25960,30091
47.388,25985,30105
47.397,25999,30111
47.410,26017,30122
47.420,26013,30109
47.429,25996,30102
47.439,25943,30065
47.449,25885,30029
47.457,25806,29980
47.467,25726,29937
47.477,25644,29886
47.488,25579,29851
47.499,25506,29814
47.510,25462,29789
47.517,25411,29765
47.529,25389,29758
47.542,25366,29742
47.548,25365,29747
47.559,25359,29744
47.568,25376,29755
47.578,25381,29754
47.591,25404,29769
47.600,25413,29779
47.609,25438,29793
47.618,25444,29796
47.628,25466,29806
47.640,25476,29813
47.650,25504,29829
47.662,25512,29835
47.670,25540,29845
47.679,25544,29849
47.689,25562,29851
47.700,25558,29854
47.711,25568,29855
47.721,25564,29856
47.733,25570,29853
47.739,25558,29848
47.749,25557,29848
47.759,25550,29841
47.769,25547,29842
47.782,25543,29841
47.792,25546,29838
47.803,25546,29840
47.811,25555,29844
47.824,25558,29855
47.831,25572,29852
47.840,25574,29857
47.851,25594,29868
47.860,25605,29880
47.872,25623,29883
47.883,25633,29892
47.891,25646,29895
47.902,25657,29912
47.912,25673,29915
47.924,25681,29922
47.932,25697,29926
47.941,25705,29927
47.950,25717,29935
47.961,25727,29942
47.974,25734,29947
47.981,25745,29953
47.994,25750,29956
48.001,25762,29958
48.012,25770,29961
48.022,25780,29967
48.031,25782,29968
48.044,25797,29973
48.053,25796,29974
48.064,25808,29984
48.072,25816,29985
48.081,25825,29993
48.092,25831,29994
48.102,25841,30001
48.115,25846,30003
48.124,25856,30009
48.135,25865,30012
48.142,25874,30013
48.153,25882,30021
48.162,25885,30019
48.172,25868,30007
48.184,25844,29990
48.195,25787,29954
48.203,25722,29917
48.215,25647,29872
48.227,25577,29833
48.234,25502,29787
48.243,25438,29759
48.253,25375,29719
48.266,25336,29706
48.276,25302,29682
48.286,25283,29681
48.293,25270,29669
48.303,25277,29680
48.314,25288,29686
48.323,25306,29701
48.336,25329,29706
48.346,25353,29728
48.357,25380,29738
48.364,25405,29757
48.373,25428,29764
48.385,25455,29786
48.393,25479,29795
48.407,25519,29815
48.417,25536,29829
48.427,25575,29842
48.436,25585,29852
48.447,25615,29866
48.454,25611,29864
48.465,25635,29873
48.474,25629,29876
48.484,25644,29882
48.497,25641,29879
48.506,25656,29885
48.515,25655,29887
48.527,25672,29896
48.538,25675,29898
48.546,25698,29910
48.555,25713,29916
48.565,25741,29937
48.575,25764,29949
48.588,25804,29969
48.597,25825,29986
48.606,25870,30005
48.615,25892,30022
48.627,25931,30043
48.636,25959,30054
48.648,25997,30072
48.658,26019,30087
48.669,26055,30112
48.676,26078,30123
48.686,26109,30144
48.696,26116,30144
48.706,26130,30154
48.718,26140,30154
48.728,26154,30167
48.739,26159,30166
48.747,26174,30177
48.758,26177,30170
48.766,26187,30184
48.780,26182,30173
48.789,26186,30184
48.799,26176,30173
48.810,26178,30172
48.817,26168,30164
48.823,26166,30165
48.823,26156,30159
48.839,26151,30159
48.856,26145,30146
48.856,26149,30150
48.872,26140,30148
48.888,26144,30147
48.888,26136,30145
48.904,26149,30145
48.919,26136,30138
48.919,26137,30142
48.934,26110,30123
48.951,26099,30112
48.951,26067,30094
48.966,26042,30068
48.966,25970,30031
48.981,25899,29986
48.997,25792,29920
48.997,25692,29862
49.013,25566,29792
49.029,25468,29740
49.029,25356,29679
49.044,25274,29636
49.044,25191,29597
49.059,25146,29572
49.077,25093,29551
49.091,25079,29539
49.099,25064,29543
49.099,25083,29548
49.115,25093,29557
49.115,25113,29573
49.130,25132,29584
49.147,25153,29598
49.162,25167,29601
49.162,25186,29615
49.178,25198,29623
49.178,25220,29639
49.193,25233,29644
49.209,25259,29658
49.209,25270,29665
49.224,25288,29674
49.240,25290,29679
49.240,25307,29684
49.258,25302,29683
49.266,25301,29679
49.282,25297,29671
49.282,25292,29673
49.301,25279,29665
49.311,25273,29661
49.321,25262,29655
49.332,25260,29656
49.334,25257,29651
49.350,25263,29660
49.350,25263,29657
49.365,25277,29666
49.381,25282,29671
49.381,25305,29683
49.397,25328,29695
49.397,25368,29716
49.412,25398,29735
49.428,25448,29759
49.428,25481,29785
49.443,25535,29814
49.459,25578,29836
49.475,25630,29864
49.475,25669,29886
49.490,25726,29920
49.490,25764,29941
49.506,25818,29969
49.522,25856,29994
49.522,25911,30021
49.537,25947,30049
49.553,25995,30067
49.553,26027,30087
49.570,26074,30110
49.582,26108,30134
49.590,26144,30150
49.603,26169,30164
49.603,26199,30178
49.619,26217,30192
49.635,26240,30201
49.635,26250,30209
49.650,26265,30213
49.650,26265,30219
49.666,26284,30223
49.682,26284,30230
49.682,26305,30233
49.698,26306,30241
49.698,26329,30247
49.714,26334,30256
49.730,26353,30259
49.730,26368,30272
49.753,26388,30277
49.753,26402,30291
49.769,26424,30297
49.784,26432,30306
49.795,26424,30295
49.805,26391,30273
49.816,26308,30218
49.817,26202,30157
49.832,26095,30090
49.840,26005,30043
49.855,25927,29998
49.865,25863,29963
49.865,25802,29929
49.881,25765,29912
49.896,25731,29896
49.896,25719,29893
49.912,25709,29889
49.912,25713,29898
49.927,25722,29906
49.943,25747,29919
49.943,25762,29930
49.959,25784,29944
49.975,25810,29959
49.975,25836,29977
49.991,25860,29989
49.991,25887,30003
50.006,25905,30016
50.022,25937,30033
50.038,25958,30047
50.038,25982,30061
50.053,25991,30062
50.053,26000,30069
50.071,25996,30062
50.086,25989,30059
50.097,25968,30044
50.108,25955,30040
50.116,25934,30018
50.116,25920,30013
50.131,25897,30001
50.131,25883,29994
50.147,25864,29982
50.163,25855,29980
50.178,25851,29972
50.178,25854,29980
50.194,25853,29972
50.194,25863,29986
50.209,25872,29984
50.226,25884,29999
50.226,25890,30002
50.242,25905,30012
50.258,25912,30015
50.258,25940,30028
50.273,25944,30036
50.289,25970,30050
50.289,25974,30053
50.305,25994,30061
50.305,25999,30063
50.322,26020,30075
50.335,26023,30079
50.348,26047,30091
50.348,26051,30091
50.363,26070,30099
50.363,26072,30106
50.379,26091,30115
50.395,26091,30114
50.410,26112,30126
50.410,26107,30119
50.426,26126,30130
50.426,26126,30132
50.441,26146,30136
50.457,26144,30144
50.457,26162,30147
50.473,26158,30152
50.488,26179,30155
50.488,26171,30155
50.504,26186,30165
50.520,26194,30168
50.520,26198,30172
50.535,26203,30174
50.551,26217,30183
50.551,26212,30171
50.568,26194,30163
50.581,26137,30120
50.592,26069,30087
50.602,25984,30034
50.613,25911,29990
50.622,25817,29932
50.627,25741,29899
50.642,25662,29849
50.642,25609,29820
50.658,25552,29791
50.658,25521,29782
50.673,25496,29762
50.689,25486,29769
50.689,25484,29768
50.705,25496,29777
50.720,25508,29788
50.720,25532,29802
50.738,25550,29811
50.738,25574,29830
50.754,25588,29836
50.769,25620,29852
50.769,25638,29863
50.785,25677,29887
50.800,25692,29895
50.800,25729,29915
50.821,25740,29923
50.822,25779,29943
50.838,25790,29949
50.854,25815,29957
50.864,25806,29955
50.870,25811,29955
50.883,25802,29947
50.891,25808,29948
50.891,25796,29939
50.907,25796,29942
50.923,25786,29937
50.923,25791,29937
50.939,25787,29937
50.939,25792,29937
50.954,25788,29938
50.970,25795,29940
50.985,25784,29934
50.985,25790,29938
51.001,25778,29935
51.017,25789,29935
51.017,25781,29935
51.032,25793,29947
51.032,25791,29938
51.048,25804,29947
51.063,25804,29943
51.063,25821,29959
51.081,25830,29964
51.081,25860,29983
51.099,25876,29988
51.114,25902,30007
51.114,25922,30013
51.130,25945,30034
51.145,25967,30039
51.145,25985,30053
51.161,25997,30052
51.161,26007,30064
51.176,26014,30063
51.192,26027,30068
51.192,26031,30069
51.207,26046,30075
51.223,26036,30075
51.223,26044,30079
51.239,26032,30072
51.254,26044,30071
51.254,26026,30066
51.270,26028,30064
51.286,26012,30058
51.286,26024,30065
51.301,26013,30059
51.301,26027,30066
51.317,26031,30069
51.332,26045,30076
51.332,26044,30072
51.348,26039,30067
51.364,25990,30036
51.364,25937,30000
51.379,25861,29955
51.395,25788,29913
51.395,25704,29867
51.413,25644,29833
51.422,25577,29795
51.430,25534,29778
51.446,25494,29761
51.456,25482,29751
51.466,25464,29749
51.477,25473,29747
51.482,25472,29757
51.498,25496,29766
51.498,25509,29780
51.514,25533,29792
51.514,25550,29805
51.529,25575,29816
51.545,25587,29829
51.545,25606,29836
51.560,25624,29849
51.574,25643,29856
51.574,25666,29871
51.597,25682,29875
51.605,25698,29887
51.613,25711,29892
51.622,25711,29891
51.638,25699,29878
51.638,25675,29869
51.654,25649,29849
51.669,25620,29832
51.669,25592,29813
51.684,25562,29797
51.684,25538,29786
51.700,25519,29773
51.716,25498,29766
51.716,25492,29763
51.731,25477,29758
51.747,25492,29763
51.747,25497,29769
51.763,25521,29781
51.778,25534,29791
51.778,25554,29801
51.794,25567,29813
51.810,25593,29825
51.810,25612,29835
51.830,25636,29848
51.838,25645,29855
51.846,25669,29861
51.854,25675,29872
51.863,25686,29870
51.879,25693,29879
51.879,25707,29884
51.894,25711,29883
51.894,25722,29895
51.913,25727,29894
51.930,25733,29903
51.930,25737,29900
51.945,25744,29906
51.961,25744,29901
51.961,25756,29912
51.976,25756,29907
51.976,25761,29912
51.992,25760,29911
52.008,25777,29918
52.008,25781,29920
52.023,25787,29930
52.039,25797,29928
52.039,25805,29938
52.055,25816,29941
52.070,25825,29944
52.080,25835,29946
52.088,25840,29953
52.096,25827,29941
52.112,25809,29929
52.112,25745,29891
52.127,25688,29856
52.127,25599,29808
52.143,25531,29763
52.159,25436,29714
52.159,25366,29673
52.174,25283,29634
52.190,25232,29606
52.190,25181,29583
52.206,25159,29571
52.221,25138,29561
52.221,25142,29569
52.237,25142,29565
52.252,25165,29580
52.252,25183,29593
52.268,25219,29617
52.268,25247,29636
52.284,25287,29656
52.303,25314,29670
52.303,25355,29693
52.320,25379,29707
52.320,25431,29731
52.335,25456,29751
52.351,25493,29768
52.351,25504,29771
52.367,25524,29779
52.383,25522,29783
52.383,25528,29783
52.398,25522,29773
52.414,25518,29773
52.414,25503,29766
52.430,25493,29758
52.446,25481,29744
52.447,25478,29752
52.463,25464,29745
52.471,25473,29747
52.479,25465,29744
52.495,25477,29752
52.495,25477,29753
52.511,25492,29764
52.511,25501,29769
52.527,25523,29779
52.542,25534,29785
52.542,25557,29799
52.558,25575,29808
52.573,25599,29828
52.573,25615,29834
52.590,25642,29850
52.604,25657,29857
52.616,25681,29870
52.624,25687,29874
52.636,25719,29890
52.647,25722,29893
52.647,25747,29904
52.662,25754,29913
52.662,25780,29922
52.678,25789,29931
52.694,25818,29944
52.694,25823,29948
52.709,25849,29957
52.725,25856,29958
52.725,25878,29973
52.740,25875,29969
52.740,25892,29984
52.757,25893,29984
52.772,25909,29992
52.772,25909,29992
52.788,25923,29998
52.807,25920,29996
52.815,25935,29999
52.826,25930,30004
52.836,25938,30001
52.848,25928,29998
52.858,25924,29993
52.869,25882,29965
52.876,25832,29934
52.886,25744,29884
52.897,25665,29839
52.906,25564,29782
52.919,25480,29735
52.929,25387,29681
52.938,25321,29649
52.950,25253,29609
52.960,25214,29594
52.967,25182,29579
52.977,25173,29582
52.987,25171,29575
52.997,25180,29589
53.009,25201,29601
53.020,25229,29624
53.027,25258,29633
53.039,25290,29656
53.051,25312,29667
53.057,25347,29689
53.067,25370,29704
53.078,25415,29727
53.087,25432,29737
53.101,25479,29760
53.110,25494,29773
53.119,25526,29782
53.129,25530,29787
53.138,25541,29792
53.149,25531,29790
53.159,25532,29785
53.171,25508,29776
53.181,25513,29773
53.191,25501,29768
53.198,25500,29763
53.209,25483,29758
53.218,25478,29755
53.228,25468,29750
53.241,25468,29745
53.250,25461,29748
53.262,25467,29748
53.269,25460,29747
53.279,25470,29751
53.289,25457,29754
53.299,25470,29751
53.311,25456,29750
53.321,25462,29746
53.329,25455,29751
53.341,25459,29743
53.352,25456,29750
53.359,25457,29750
53.370,25452,29747
53.379,25457,29747
53.392,25446,29746
53.402,25451,29741
53.413,25440,29740
53.421,25443,29740
53.430,25439,29740
53.440,25438,29736
53.451,25435,29742
53.460,25430,29734
53.473,25420,29731
53.483,25413,29723
53.493,25401,29722
53.501,25397,29717
53.510,25388,29714
53.521,25382,29706
53.532,25376,29709
53.542,25373,29703
53.553,25371,29706
53.564,25363,29700
53.571,25368,29705
53.581,25357,29696
53.592,25361,29697
53.602,25343,29691
53.614,25322,29673
53.623,25266,29644
53.634,25202,29601
53.643,25112,29548
53.654,25014,29497
53.662,24912,29439
53.671,24817,29388
53.682,24718,29334
53.694,24646,29296
53.704,24583,29263
53.715,24535,29240
53.725,24502,29227
53.735,24502,29230
53.745,24510,29234
53.752,24531,29245
53.762,24549,29255
53.772,24574,29276
53.782,24595,29283
53.795,24618,29303
53.804,24637,29308
53.813,24656,29327
53.825,24658,29319
53.836,24671,29328
53.845,24663,29325
53.853,24669,29329
53.863,24647,29314
53.873,24637,29311
53.884,24605,29288
53.896,24587,29283
53.905,24557,29266
53.915,24528,29254
53.926,24502,29230
53.935,24477,29224
53.944,24459,29211
53.954,24443,29205
53.964,24428,29201
53.977,24422,29197
53.987,24416,29192
53.997,24425,29202
54.007,24423,29200
54.016,24444,29215
54.027,24455,29225
54.034,24489,29242
54.045,24505,29257
54.055,24543,29274
54.064,24559,29289
54.077,24588,29306
54.087,24604,29312
54.095,24634,29329
54.108,24645,29341
54.117,24688,29359
54.128,24693,29366
54.135,24731,29386
54.145,24744,29396
54.155,24785,29414
54.165,24795,29427
54.178,24833,29440
54.185,24854,29459
54.198,24889,29474
54.209,24902,29486
54.218,24931,29500
54.227,24947,29508
54.237,24975,29531
54.246,24992,29538
54.258,25017,29551
54.268,25040,29557
54.278,25066,29581
54.288,25083,29584
54.298,25116,29613
54.310,25134,29617
54.316,25163,29637
54.327,25180,29644
54.337,25212,29663
54.346,25211,29658
54.360,25215,29657
54.369,25181,29636
54.379,25136,29616
54.389,25066,29566
54.400,25001,29533
54.407,24922,29491
54.417,24864,29459
54.428,24795,29419
54.437,24746,29403
54.449,24702,29377
54.459,24685,29373
54.468,24665,29364
54.478,24669,29371
54.488,24672,29376
54.497,24698,29387
54.511,24707,29398
54.521,24739,29411
54.531,24755,29425
54.538,24787,29444
54.548,24812,29456
54.558,24852,29485
54.568,24882,29501
54.580,24926,29524
54.590,24951,29542
54.601,24991,29560
54.608,25003,29563
54.619,25028,29576
54.629,25019,29572
54.639,25028,29574
54.651,25013,29570
54.659,25018,29569
54.672,25004,29565
54.680,25002,29563
54.689,24987,29554
54.699,24985,29558
54.709,24980,29551
54.722,24985,29559
54.733,24987,29559
54.742,25005,29573
54.749,25020,29576
54.761,25050,29602
54.769,25064,29606
54.781,25096,29628
54.792,25110,29633
54.803,25141,29658
54.813,25152,29660
54.820,25181,29675
54.828,25189,29679
54.828,25212,29694
54.847,25222,29697
54.860,25236,29711
54.863,25242,29702
54.877,25243,29712
54.894,25244,29707
54.899,25248,29711
54.913,25248,29709
54.913,25256,29717
54.930,25245,29711
54.930,25259,29722
54.952,25255,29717
54.962,25267,29723
54.973,25263,29726
54.983,25279,29737
54.983,25279,29737
54.999,25303,29750
55.011,25300,29751
55.016,25321,29762
55.030,25320,29758
55.043,25330,29765
55.048,25317,29756
55.065,25301,29746
55.065,25252,29716
55.080,25199,29681
55.080,25121,29639
55.097,25053,29597
55.110,24971,29553
55.115,24910,29523
55.131,24847,29491
55.143,24806,29470
55.148,24771,29456
55.160,24764,29450
55.164,24753,29452
55.180,24763,29457
55.195,24770,29467
55.200,24796,29478
55.210,24810,29495
55.214,24836,29506
55.230,24853,29522
55.243,24882,29531
55.251,24900,29545
55.263,24929,29560
55.263,24946,29575
55.277,24981,29584
55.294,24995,29598
55.294,25013,29604
55.311,25018,29614
55.311,25025,29611
55.328,25020,29610
55.344,25013,29602
55.345,25001,29598
55.361,24991,29585
55.377,24976,29582
55.378,24964,29580
55.394,24959,29574
55.394,24944,29566
55.411,24944,29565
55.411,24945,29571
55.427,24950,29574
55.444,24951,29578
55.444,24965,29583
55.461,24971,29588
55.477,24986,29600
55.478,24999,29599
55.495,25014,29617
55.495,25024,29622
55.512,25047,29629
55.526,25058,29636
55.529,25074,29647
55.545,25089,29656
55.558,25105,29662
55.565,25116,29673
55.575,25130,29680
55.579,25137,29688
55.595,25154,29695
55.603,25159,29696
55.611,25173,29704
55.627,25176,29703
55.627,25190,29710
55.647,25194,29710
55.655,25206,29721
55.663,25210,29721
55.679,25222,29731
55.680,25223,29732
55.697,25234,29739
55.705,25236,29734
55.709,25243,29744
55.723,25234,29734
55.731,25216,29721
55.742,25172,29695
55.758,25112,29667
55.766,25040,29618
55.774,24955,29578
55.782,24862,29520
55.782,24778,29481
55.798,24694,29431
55.814,24634,29402
55.827,24572,29367
55.834,24555,29363
55.844,24526,29356
55.852,24535,29360
55.860,24534,29363
55.876,24565,29382
55.876,24580,29397
55.893,24626,29412
55.909,24639,29427
55.909,24681,29450
55.924,24703,29463
55.924,24733,29485
55.940,24753,29495
55.956,24795,29522
55.956,24820,29529
55.971,24853,29552
55.987,24863,29555
55.987,24887,29568
56.010,24879,29562
56.011,24892,29565
56.028,24875,29560
56.028,24876,29558
56.044,24853,29549
56.060,24853,29546
56.068,24830,29533
56.078,24826,29538
56.078,24808,29526
56.094,24812,29533
56.109,24803,29519
56.109,24814,29531
56.126,24812,29528
56.126,24833,29545
56.142,24835,29545
56.158,24865,29567
56.173,24877,29571
56.180,24904,29591
56.187,24915,29590
56.203,24939,29608
56.212,24949,29615
56.219,24973,29633
56.228,24989,29631
56.235,25004,29642
56.250,25017,29649
56.259,25028,29660
56.273,25037,29661
56.283,25052,29673
56.293,25057,29671
56.299,25071,29680
56.307,25066,29681
56.315,25086,29693
56.326,25080,29688
56.342,25102,29699
56.350,25099,29703
56.362,25121,29712
56.370,25120,29713
56.378,25144,29721
56.392,25142,29720
56.401,25163,29730
56.409,25160,29728
56.417,25164,29736
56.433,25146,29721
56.441,25124,29706
56.451,25063,29667
56.460,25001,29632
56.470,24908,29580
56.483,24826,29535
56.492,24727,29481
56.498,24655,29440
56.509,24575,29405
56.517,24532,29379
56.531,24491,29361
56.542,24488,29361
56.550,24479,29364
56.559,24496,29380
56.571,24515,29387
56.575,24551,29411
56.592,24569,29417
56.603,24604,29443
56.611,24616,29446
56.626,24650,29469
56.634,24665,29472
56.642,24694,29492
56.642,24714,29502
56.659,24743,29525
56.667,24760,29528
56.675,24772,29537
56.692,24777,29538
56.700,24778,29542
56.717,24771,29531
56.727,24765,29533
56.735,24751,29520
56.742,24742,29515
56.751,24721,29508
56.759,24719,29507
56.775,24694,29495
56.775,24701,29495
56.795,24685,29488
56.803,24699,29497
56.811,24690,29492
56.828,24706,29503
56.835,24702,29506
56.846,24735,29521
56.856,24739,29523
56.866,24768,29540
56.878,24770,29545
56.888,24799,29559
56.898,24805,29563
56.908,24822,29577
56.917,24833,29573
56.926,24851,29589
56.936,24855,29592
56.946,24875,29599
56.957,24876,29606
56.968,24899,29614
56.979,24900,29617
56.986,24919,29625
56.997,24924,29630
57.009,24942,29638
57.018,24947,29643
57.026,24961,29647
57.036,24963,29652
57.047,24981,29658
57.056,24982,29668
57.068,25002,29670
57.079,25005,29674
57.089,25021,29676
57.098,25020,29689
57.108,25036,29687
57.117,25033,29692
57.126,25033,29684
57.138,25011,29679
57.147,24969,29645
57.159,24906,29612
57.169,24828,29564
57.179,24740,29519
57.189,24653,29463
57.199,24567,29422
57.207,24496,29384
57.217,24440,29357
57.227,24398,29335
57.237,24381,29336
57.250,24382,29333
57.259,24393,29346
57.268,24412,29358
57.280,24438,29375
57.290,24460,29386
57.300,24491,29400
57.308,24512,29415
57.318,24535,29433
57.328,24553,29441
57.339,24590,29462
57.350,24608,29472
57.361,24637,29492
57.370,24661,29504
57.381,24687,29521
57.391,24690,29517
57.399,24704,29523
57.409,24697,29519
57.419,24695,29522
57.431,24677,29512
57.442,24670,29504
57.451,24654,29498
57.459,24645,29491
57.471,24636,29485
57.482,24630,29487
57.489,24626,29489
57.499,24636,29495
57.509,24644,29487
57.520,24656,29505
57.533,24674,29507
57.542,24695,29530
57.550,24701,29522
57.560,24717,29540
57.570,24718,29537
57.581,24737,29554
57.593,24738,29549
57.603,24750,29556
57.613,24747,29549
57.623,24749,29558
57.631,24744,29547
57.640,24744,29555
57.651,24735,29550
57.661,24734,29550
57.673,24729,29544
57.683,24735,29550
57.694,24730,29547
57.701,24737,29554
57.712,24729,29545
57.722,24738,29556
57.731,24731,29550
57.743,24748,29559
57.751,24743,29558
57.763,24761,29567
57.773,24764,29570
57.784,24777,29578
57.791,24767,29575
57.801,24782,29581
57.811,24778,29581
57.824,24786,29586
57.834,24775,29578
57.844,24789,29584
57.854,24786,29583
57.864,24797,29590
57.875,24787,29589
57.882,24801,29592
57.893,24783,29586
57.902,24780,29579
57.912,24737,29558
57.925,24678,29521
57.934,24585,29470
57.945,24482,29404
57.955,24357,29339
57.965,24248,29274
57.974,24140,29215
57.983,24066,29180
57.994,24011,29149
58.005,23988,29146
58.015,23980,29141
58.025,23996,29157
58.033,24014,29163
58.046,24051,29187
58.056,24078,29204
58.066,24126,29230
58.074,24152,29245
58.085,24196,29275
58.093,24228,29285
58.106,24262,29306
58.116,24296,29323
58.124,24337,29351
58.136,24375,29368
58.146,24416,29398
58.157,24447,29412
58.164,24483,29431
58.174,24503,29442
58.185,24524,29456
58.194,24526,29452
58.206,24540,29463
58.217,24531,29456
58.226,24540,29463
58.237,24533,29459
58.247,24544,29468
58.254,24542,29468
58.265,24561,29478
58.275,24560,29478
58.286,24582,29493
58.297,24593,29497
58.307,24620,29514
58.314,24636,29521
58.325,24668,29541
58.335,24685,29554
58.346,24718,29572
58.357,24732,29583
58.367,24766,29599
58.378,24787,29609
58.385,24816,29632
58.396,24834,29637
58.406,24865,29656
58.416,24882,29669
58.428,24912,29681
58.438,24925,29687
58.448,24948,29704
58.456,24970,29712
58.466,24988,29731
58.476,25004,29734
58.486,25027,29751
58.498,25037,29750
58.509,25054,29764
58.518,25063,29770
58.527,25082,29780
58.537,25084,29782
58.546,25096,29786
58.559,25097,29789
58.569,25112,29795
58.579,25113,29793
58.589,25114,29798
58.597,25122,29796
58.607,25132,29809
58.617,25135,29808
58.627,25144,29813
58.640,25145,29814
58.650,25157,29822
58.660,25155,29825
58.668,25171,29832
58.678,25167,29833
58.688,25187,29843
58.700,25184,29846
58.710,25203,29854
58.721,25200,29857
58.728,25222,29863
58.741,25216,29862
58.752,25228,29868
58.758,25202,29851
58.768,25170,29829
58.779,25099,29784
58.788,25017,29739
58.802,24907,29677
58.812,24801,29617
58.819,24688,29555
58.823,24594,29507
58.839,24503,29463
58.839,24446,29432
58.854,24395,29412
58.870,24380,29402
58.870,24368,29408
58.885,24385,29413
58.901,24402,29426
58.901,24433,29446
58.917,24454,29462
58.917,24488,29476
58.932,24509,29491
58.948,24538,29505
58.948,24557,29519
58.964,24583,29528
58.979,24604,29545
58.979,24638,29556
58.995,24659,29572
59.006,24680,29583
59.023,24690,29592
59.031,24700,29591
59.040,24700,29596
59.048,24703,29589
59.057,24701,29595
59.072,24702,29589
59.072,24698,29593
59.088,24701,29594
59.104,24705,29598
59.104,24711,29596
59.120,24719,29605
59.120,24730,29610
59.135,24745,29622
59.150,24759,29633
59.150,24781,29643
59.166,24796,29649
59.182,24822,29664
59.182,24837,29670
59.198,24860,29685
59.213,24875,29694
59.213,24893,29708
59.228,24910,29713
59.228,24934,29726
59.244,24942,29733
59.260,24965,29748
59.275,24977,29756
59.275,24994,29762
59.291,25005,29767
59.291,25015,29774
59.307,25025,29782
59.322,25041,29789
59.325,25044,29788
59.341,25060,29800
59.341,25063,29803
59.356,25079,29810
59.372,25079,29807
59.372,25089,29817
59.389,25090,29814
59.405,25099,29823
59.414,25102,29817
59.422,25106,29827
59.430,25108,29825
59.440,25116,29832
59.448,25118,29830
59.456,25125,29839
59.472,25129,29835
59.472,25137,29840
59.495,25145,29841
59.504,25154,29855
59.516,25163,29854
59.526,25177,29864
59.529,25184,29866
59.545,25198,29880
59.550,25209,29881
59.558,25225,29892
59.575,25228,29894
59.587,25245,29907
59.595,25235,29897
59.606,25238,29893
59.612,25192,29866
59.627,25135,29833
59.635,25041,29777
59.644,24947,29721
59.652,24827,29658
59.667,24731,29600
59.676,24615,29544
59.684,24538,29500
59.692,24459,29462
59.706,24419,29445
59.715,24383,29428
59.725,24381,29429
59.733,24378,29431
59.748,24406,29446
59.755,24420,29458
59.763,24449,29473
59.776,24462,29485
59.784,24491,29497
59.792,24499,29510
59.808,24524,29516
59.819,24531,29526
59.827,24559,29539
59.835,24579,29547
59.843,24603,29568
59.850,24616,29565
59.866,24633,29584
59.875,24633,29578
59.889,24643,29583
59.894,24627,29573
59.906,24626,29571
59.914,24601,29556
59.922,24602,29558
59.939,24578,29548
59.950,24580,29548
59.956,24568,29537
59.956,24567,29541
59.972,24566,29538
59.988,24567,29546
59.988,24574,29542
60.000,24588,29553
60.016,24600,29560
60.016,24623,29574
60.032,24633,29579
60.047,24660,29596
60.047,24672,29601
60.063,24706,29621
60.078,24713,29628
60.078,24745,29642
60.095,24751,29647
60.111,24781,29661
60.112,24788,29667
60.127,24812,29679
60.127,24818,29686
60.143,24838,29693
60.159,24845,29700
60.159,24865,29708
60.174,24873,29710
60.189,24891,29718
60.197,24897,29723
60.206,24914,29734
60.215,24918,29739
60.230,24935,29743
60.239,24934,29749
60.247,24955,29753
60.255,24953,29757
60.255,24971,29760
60.272,24965,29763
60.289,24980,29771
60.289,24976,29769
60.306,24990,29778
60.323,24992,29778
60.323,25004,29789
60.339,25010,29785
60.347,25022,29793
60.356,25024,29793
60.372,25040,29802
60.380,25041,29805
60.389,25058,29816
60.389,25059,29813
60.405,25077,29830
60.422,25082,29829
60.423,25104,29843
60.439,25107,29843
60.447,25126,29857
60.463,25138,29855
60.471,25157,29873
60.472,25164,29874
60.488,25183,29886
60.488,25180,29880
60.503,25177,29880
60.519,25132,29852
60.519,25072,29815
60.535,24975,29753
60.550,24880,29698
60.560,24766,29640
60.565,24668,29582
60.576,24572,29538
60.587,24503,29502
60.598,24443,29472
60.609,24417,29462
60.620,24395,29452
60.630,24408,29463
60.641,24416,29471
60.651,24448,29488
60.662,24464,29501
60.672,24501,29518
60.683,24521,29531
60.693,24552,29549
60.704,24577,29559
60.714,24602,29575
60.722,24617,29584
60.725,24646,29598
60.735,24662,29613
60.755,24687,29623
60.766,24704,29634
60.768,24723,29641
60.780,24721,29640
60.789,24731,29639
60.800,24718,29640
60.810,24717,29631
60.821,24699,29625
60.832,24697,29620
60.846,24678,29617
60.855,24684,29612
60.864,24670,29609
60.873,24676,29609
60.884,24676,29612
60.894,24681,29615
60.906,24689,29624
60.916,24698,29628
60.926,24716,29636
60.934,24725,29642
60.944,24748,29657
60.954,24764,29662
60.964,24776,29671
60.976,24797,29681
60.984,24808,29693
60.997,24823,29695
61.004,24837,29704
61.016,24848,29709
61.025,24861,29718
61.034,24867,29723
61.048,24876,29731
61.058,24885,29736
61.068,24903,29744
61.076,24903,29742
61.085,24919,29752
61.095,24923,29751
61.106,24935,29759
61.117,24936,29756
61.127,24949,29769
61.139,24956,29769
61.145,24965,29776
61.156,24976,29779
61.166,24989,29791
61.176,24999,29800
61.189,25016,29804
61.198,25029,29809
61.208,25046,29822
61.219,25063,29826
61.228,25080,29842
61.236,25093,29849
61.246,25113,29859
61.256,25127,29864
61.269,25151,29881
61.279,25164,29883
61.289,25186,29905
61.297,25203,29907
61.308,25228,29929
61.319,25240,29928
61.327,25264,29944
61.339,25280,29949
61.349,25298,29968
61.360,25319,29974
61.368,25339,29987
61.379,25356,29990
61.388,25381,30010
61.398,25397,30015
61.411,25413,30025
61.420,25419,30026
61.431,25417,30023
61.438,25366,29990
61.449,25317,29957
61.459,25213,29898
61.469,25132,29850
61.481,25019,29789
61.491,24932,29742
61.501,24838,29695
61.509,24780,29664
61.519,24710,29631
61.529,24683,29616
61.542,24651,29604
61.551,24650,29607
61.562,24644,29606
61.571,24671,29625
61.579,24685,29633
61.589,24724,29654
61.599,24737,29666
61.609,24783,29684
61.621,24801,29701
61.632,24842,29720
61.641,24860,29734
61.649,24905,29753
61.659,24921,29767
61.669,24955,29786
61.680,24968,29791
61.691,24981,29798
61.702,24978,29792
61.713,24978,29794
61.720,24962,29783
61.731,24954,29776
61.740,24931,29766
61.751,24924,29760
61.763,24897,29746
61.772,24895,29747
61.783,24873,29735
61.791,24878,29740
61.800,24866,29733
61.812,24876,29739
61.820,24872,29737
61.832,24891,29749
61.844,24899,29752
61.853,24918,29771
61.861,24937,29773
61.871,24959,29791
61.882,24979,29798
61.893,25003,29812
61.904,25019,29817
61.913,25040,29833
61.923,25050,29836
61.933,25079,29851
61.944,25088,29857
61.952,25116,29871
61.962,25120,29873
61.972,25146,29885
61.983,25148,29889
61.994,25168,29895
62.005,25171,29898
62.012,25196,29913
62.025,25195,29911
62.035,25208,29921
62.045,25213,29922
62.052,25223,29930
62.062,25226,29924
62.072,25242,29938
62.085,25245,29935
62.094,25252,29943
62.103,25256,29941
62.115,25269,29948
62.124,25263,29949
62.135,25280,29955
62.143,25277,29957
62.154,25290,29961
62.163,25291,29961
62.173,25307,29972
62.185,25309,29973
62.194,25325,29985
62.205,25334,29985
62.216,25350,30002
62.227,25356,29996
62.234,25375,30012
62.244,25381,30013
62.256,25404,30026
62.265,25410,30026
62.277,25433,30044
62.287,25439,30043
62.296,25451,30049
62.306,25435,30041
62.318,25408,30021
62.324,25343,29975
62.334,25263,29928
62.344,25163,29875
62.355,25066,29820
62.366,24957,29762
62.376,24869,29716
62.385,24783,29666
62.397,24719,29637
62.407,24662,29611
62.416,24639,29604
62.426,24619,29595
62.436,24628,29602
62.445,24628,29606
62.457,24658,29620
62.467,24673,29634
62.475,24712,29656
62.487,24736,29665
62.499,24771,29684
62.508,24784,29697
62.517,24825,29717
62.526,24849,29729
62.536,24889,29751
62.548,24914,29764
62.558,24950,29784
62.566,24966,29793
62.578,24978,29800
62.588,24975,29794
62.599,24976,29795
62.606,24966,29788
62.616,24965,29785
62.627,24947,29781
62.636,24943,29775
62.648,24926,29770
62.659,24927,29767
62.670,24921,29767
62.679,24927,29766
62.690,24927,29770
62.697,24948,29774
62.708,24952,29784
62.717,24976,29794
62.728,24993,29811
62.740,25019,29819
62.750,25034,29834
62.758,25061,29843
62.771,25082,29855
62.779,25102,29862
62.787,25123,29880
62.798,25141,29888
62.807,25162,29900
62.820,25183,29912
62.830,25201,29926
62.840,25218,29928
62.848,25234,29942
62.861,25258,29950
62.871,25281,29967
62.882,25309,29982
62.889,25336,29999
62.899,25369,30016
62.908,25401,30033
62.918,25418,30041
62.931,25451,30057
62.939,25464,30065
62.951,25492,30079
62.961,25506,30091
62.973,25524,30104
62.979,25531,30099
62.989,25548,30114
63.001,25558,30115
63.011,25574,30125
63.022,25586,30134
63.029,25604,30147
63.040,25627,30158
63.049,25649,30168
63.059,25669,30185
63.072,25699,30201
63.082,25720,30215
63.093,25746,30230
63.100,25760,30235
63.111,25773,30241
63.120,25769,30234
63.130,25770,30237
63.142,25759,30224
63.152,25752,30226
63.163,25739,30212
63.171,25724,30206
63.182,25704,30195
63.190,25694,30188
63.201,25668,30170
63.214,25648,30161
63.223,25609,30134
63.234,25551,30099
63.241,25451,30034
63.251,25336,29973
63.261,25200,29895
63.272,25062,29823
63.284,24911,29741
63.294,24771,29666
63.304,24640,29596
63.311,24522,29537
63.322,24422,29488
63.331,24356,29452
63.343,24305,29430
63.354,24294,29427
63.363,24289,29425
63.375,24319,29448
63.383,24342,29466
63.393,24391,29487
63.402,24433,29518
63.412,24485,29545
63.424,24520,29566
63.434,24563,29588
63.444,24590,29604
63.455,24628,29624
63.465,24656,29639
63.473,24685,29652
63.483,24702,29660
63.492,24721,29667
63.505,24718,29668
63.515,24716,29667
63.525,24715,29663
63.535,24706,29659
63.545,24689,29653
63.556,24684,29644
63.563,24665,29639
63.574,24661,29632
63.584,24648,29625
63.596,24643,29625
63.606,24639,29625
63.615,24641,29623
63.625,24645,29621
63.635,24646,29628
63.646,24641,29628
63.656,24647,29629
63.664,24640,29623
63.674,24637,29622
63.684,24630,29618
63.694,24627,29617
63.706,24618,29609
63.715,24616,29607
63.727,24605,29603
63.736,24600,29601
63.744,24600,29597
63.755,24599,29599
63.765,24597,29593
63.777,24602,29598
63.788,24603,29598
63.797,24616,29607
63.805,24623,29614
63.815,24641,29625
63.825,24653,29634
63.835,24674,29640
63.847,24684,29646
63.857,24704,29658
63.868,24721,29666
63.876,24745,29681
63.885,24755,29688
63.896,24782,29700
63.905,24793,29706
63.918,24814,29717
63.928,24824,29721
63.938,24845,29734
63.948,24848,29739
63.958,24868,29751
63.966,24884,29757
63.976,24904,29773
63.986,24929,29785
63.996,24959,29803
64.010,24987,29819
64.018,25022,29839
64.028,25058,29856
64.039,25092,29877
64.048,25124,29896
64.059,25158,29912
64.067,25177,29922
64.077,25204,29939
64.087,25221,29943
64.097,25226,29946
64.109,25201,29927
64.119,25163,29903
64.129,25088,29862
64.139,25020,29824
64.149,24937,29773
64.157,24853,29732
64.168,24784,29690
64.177,24720,29656
64.190,24673,29629
64.200,24636,29620
64.210,24620,29612
64.220,24614,29614
64.230,24622,29621
64.241,24643,29634
64.249,24667,29647
64.259,24702,29668
64.269,24731,29683
64.278,24779,29715
64.290,24814,29731
64.301,24862,29759
64.310,24901,29780
64.321,24953,29807
64.333,24995,29834
64.343,25048,29864
64.352,25083,29881
64.362,25129,29905
64.372,25157,29921
64.380,25186,29932
64.390,25202,29939
64.400,25223,29949
64.410,25236,29956
64.422,25249,29962
64.431,25257,29966
64.441,25277,29972
64.450,25287,29984
64.459,25315,29993
64.470,25329,30006
64.482,25356,30018
64.492,25376,30031
64.502,25402,30043
64.513,25425,30052
64.520,25455,30072
64.530,25477,30088
64.540,25517,30109
64.551,25548,30130
64.564,25585,30148
64.572,25613,30167
64.584,25657,30189
